Nov. 23, 2024   17:50:27
Cyclic Voltammetry
File: e:\2023data\yx\20241123\6-1\cv-100.bin
Data Source:  Experiment
Instrument Model:  CHI660E
Header: 
Note: 

Init E (V) = 0.47
High E (V) = 0.57
Low E (V) = 0.47
Init P/N = P
Scan Rate (V/s) = 0.1
Segment = 10
Sample Interval (V) = 0.001
Quiet Time (sec) = 2
Sensitivity (A/V) = 0.001

Results:

Channel 1:
Segment 1:

Segment 2:

Segment 3:

Segment 4:

Segment 5:

Segment 6:

Segment 7:

Segment 8:

Segment 9:

Segment 10:

Potential/V, Current/A

0.470, 4.408e-5
0.471, 2.085e-4
0.472, 3.524e-4
0.473, 4.758e-4
0.474, 5.806e-4
0.475, 6.698e-4
0.476, 7.471e-4
0.477, 8.147e-4
0.478, 8.763e-4
0.479, 9.331e-4
0.480, 9.833e-4
0.481, 1.028e-3
0.482, 1.065e-3
0.483, 1.098e-3
0.484, 1.128e-3
0.485, 1.154e-3
0.486, 1.179e-3
0.487, 1.204e-3
0.488, 1.228e-3
0.489, 1.253e-3
0.490, 1.275e-3
0.491, 1.294e-3
0.492, 1.310e-3
0.493, 1.326e-3
0.494, 1.341e-3
0.495, 1.358e-3
0.496, 1.374e-3
0.497, 1.390e-3
0.498, 1.402e-3
0.499, 1.412e-3
0.500, 1.421e-3
0.501, 1.428e-3
0.502, 1.436e-3
0.503, 1.445e-3
0.504, 1.453e-3
0.505, 1.464e-3
0.506, 1.474e-3
0.507, 1.482e-3
0.508, 1.487e-3
0.509, 1.491e-3
0.510, 1.495e-3
0.511, 1.501e-3
0.512, 1.509e-3
0.513, 1.518e-3
0.514, 1.527e-3
0.515, 1.537e-3
0.516, 1.543e-3
0.517, 1.545e-3
0.518, 1.547e-3
0.519, 1.549e-3
0.520, 1.551e-3
0.521, 1.557e-3
0.522, 1.565e-3
0.523, 1.573e-3
0.524, 1.580e-3
0.525, 1.585e-3
0.526, 1.587e-3
0.527, 1.590e-3
0.528, 1.592e-3
0.529, 1.598e-3
0.530, 1.601e-3
0.531, 1.605e-3
0.532, 1.609e-3
0.533, 1.611e-3
0.534, 1.613e-3
0.535, 1.616e-3
0.536, 1.617e-3
0.537, 1.620e-3
0.538, 1.624e-3
0.539, 1.628e-3
0.540, 1.633e-3
0.541, 1.636e-3
0.542, 1.639e-3
0.543, 1.640e-3
0.544, 1.643e-3
0.545, 1.646e-3
0.546, 1.650e-3
0.547, 1.656e-3
0.548, 1.661e-3
0.549, 1.664e-3
0.550, 1.667e-3
0.551, 1.667e-3
0.552, 1.667e-3
0.553, 1.668e-3
0.554, 1.667e-3
0.555, 1.668e-3
0.556, 1.671e-3
0.557, 1.675e-3
0.558, 1.678e-3
0.559, 1.679e-3
0.560, 1.679e-3
0.561, 1.681e-3
0.562, 1.682e-3
0.563, 1.687e-3
0.564, 1.693e-3
0.565, 1.698e-3
0.566, 1.702e-3
0.567, 1.705e-3
0.568, 1.704e-3
0.569, 1.705e-3
0.570, 1.602e-3
0.569, 1.269e-3
0.568, 9.754e-4
0.567, 7.271e-4
0.566, 5.144e-4
0.565, 3.288e-4
0.564, 1.663e-4
0.563, 2.288e-5
0.562, -1.041e-4
0.561, -2.160e-4
0.560, -3.168e-4
0.559, -4.077e-4
0.558, -4.894e-4
0.557, -5.659e-4
0.556, -6.353e-4
0.555, -6.970e-4
0.554, -7.541e-4
0.553, -8.053e-4
0.552, -8.530e-4
0.551, -8.989e-4
0.550, -9.421e-4
0.549, -9.815e-4
0.548, -1.018e-3
0.547, -1.048e-3
0.546, -1.076e-3
0.545, -1.100e-3
0.544, -1.123e-3
0.543, -1.145e-3
0.542, -1.167e-3
0.541, -1.189e-3
0.540, -1.211e-3
0.539, -1.230e-3
0.538, -1.248e-3
0.537, -1.264e-3
0.536, -1.279e-3
0.535, -1.293e-3
0.534, -1.305e-3
0.533, -1.319e-3
0.532, -1.334e-3
0.531, -1.346e-3
0.530, -1.356e-3
0.529, -1.362e-3
0.528, -1.369e-3
0.527, -1.375e-3
0.526, -1.382e-3
0.525, -1.390e-3
0.524, -1.401e-3
0.523, -1.410e-3
0.522, -1.420e-3
0.521, -1.425e-3
0.520, -1.431e-3
0.519, -1.437e-3
0.518, -1.443e-3
0.517, -1.450e-3
0.516, -1.459e-3
0.515, -1.466e-3
0.514, -1.473e-3
0.513, -1.476e-3
0.512, -1.479e-3
0.511, -1.480e-3
0.510, -1.481e-3
0.509, -1.483e-3
0.508, -1.487e-3
0.507, -1.490e-3
0.506, -1.497e-3
0.505, -1.503e-3
0.504, -1.508e-3
0.503, -1.512e-3
0.502, -1.516e-3
0.501, -1.519e-3
0.500, -1.522e-3
0.499, -1.525e-3
0.498, -1.529e-3
0.497, -1.531e-3
0.496, -1.531e-3
0.495, -1.530e-3
0.494, -1.529e-3
0.493, -1.530e-3
0.492, -1.532e-3
0.491, -1.536e-3
0.490, -1.542e-3
0.489, -1.547e-3
0.488, -1.551e-3
0.487, -1.554e-3
0.486, -1.557e-3
0.485, -1.559e-3
0.484, -1.561e-3
0.483, -1.563e-3
0.482, -1.567e-3
0.481, -1.569e-3
0.480, -1.571e-3
0.479, -1.571e-3
0.478, -1.568e-3
0.477, -1.566e-3
0.476, -1.564e-3
0.475, -1.562e-3
0.474, -1.566e-3
0.473, -1.570e-3
0.472, -1.575e-3
0.471, -1.579e-3
0.470, -1.479e-3
0.471, -1.149e-3
0.472, -8.624e-4
0.473, -6.204e-4
0.474, -4.165e-4
0.475, -2.403e-4
0.476, -8.656e-5
0.477, 4.918e-5
0.478, 1.694e-4
0.479, 2.761e-4
0.480, 3.704e-4
0.481, 4.566e-4
0.482, 5.333e-4
0.483, 6.042e-4
0.484, 6.679e-4
0.485, 7.253e-4
0.486, 7.766e-4
0.487, 8.233e-4
0.488, 8.638e-4
0.489, 9.022e-4
0.490, 9.366e-4
0.491, 9.708e-4
0.492, 1.004e-3
0.493, 1.037e-3
0.494, 1.067e-3
0.495, 1.096e-3
0.496, 1.119e-3
0.497, 1.141e-3
0.498, 1.159e-3
0.499, 1.180e-3
0.500, 1.200e-3
0.501, 1.221e-3
0.502, 1.241e-3
0.503, 1.259e-3
0.504, 1.273e-3
0.505, 1.286e-3
0.506, 1.296e-3
0.507, 1.307e-3
0.508, 1.319e-3
0.509, 1.332e-3
0.510, 1.346e-3
0.511, 1.359e-3
0.512, 1.370e-3
0.513, 1.379e-3
0.514, 1.386e-3
0.515, 1.394e-3
0.516, 1.404e-3
0.517, 1.416e-3
0.518, 1.428e-3
0.519, 1.438e-3
0.520, 1.445e-3
0.521, 1.451e-3
0.522, 1.456e-3
0.523, 1.462e-3
0.524, 1.469e-3
0.525, 1.476e-3
0.526, 1.482e-3
0.527, 1.488e-3
0.528, 1.494e-3
0.529, 1.501e-3
0.530, 1.506e-3
0.531, 1.511e-3
0.532, 1.517e-3
0.533, 1.524e-3
0.534, 1.532e-3
0.535, 1.539e-3
0.536, 1.542e-3
0.537, 1.546e-3
0.538, 1.547e-3
0.539, 1.547e-3
0.540, 1.550e-3
0.541, 1.554e-3
0.542, 1.559e-3
0.543, 1.567e-3
0.544, 1.573e-3
0.545, 1.579e-3
0.546, 1.582e-3
0.547, 1.584e-3
0.548, 1.586e-3
0.549, 1.589e-3
0.550, 1.594e-3
0.551, 1.601e-3
0.552, 1.606e-3
0.553, 1.611e-3
0.554, 1.613e-3
0.555, 1.614e-3
0.556, 1.615e-3
0.557, 1.618e-3
0.558, 1.622e-3
0.559, 1.627e-3
0.560, 1.632e-3
0.561, 1.639e-3
0.562, 1.643e-3
0.563, 1.646e-3
0.564, 1.647e-3
0.565, 1.646e-3
0.566, 1.645e-3
0.567, 1.647e-3
0.568, 1.650e-3
0.569, 1.656e-3
0.570, 1.557e-3
0.569, 1.227e-3
0.568, 9.339e-4
0.567, 6.846e-4
0.566, 4.709e-4
0.565, 2.860e-4
0.564, 1.239e-4
0.563, -1.840e-5
0.562, -1.455e-4
0.561, -2.575e-4
0.560, -3.581e-4
0.559, -4.480e-4
0.558, -5.277e-4
0.557, -6.005e-4
0.556, -6.675e-4
0.555, -7.281e-4
0.554, -7.859e-4
0.553, -8.382e-4
0.552, -8.871e-4
0.551, -9.312e-4
0.550, -9.716e-4
0.549, -1.009e-3
0.548, -1.044e-3
0.547, -1.075e-3
0.546, -1.106e-3
0.545, -1.134e-3
0.544, -1.159e-3
0.543, -1.180e-3
0.542, -1.198e-3
0.541, -1.215e-3
0.540, -1.232e-3
0.539, -1.247e-3
0.538, -1.265e-3
0.537, -1.284e-3
0.536, -1.302e-3
0.535, -1.317e-3
0.534, -1.330e-3
0.533, -1.341e-3
0.532, -1.353e-3
0.531, -1.362e-3
0.530, -1.374e-3
0.529, -1.383e-3
0.528, -1.393e-3
0.527, -1.401e-3
0.526, -1.407e-3
0.525, -1.413e-3
0.524, -1.420e-3
0.523, -1.427e-3
0.522, -1.435e-3
0.521, -1.442e-3
0.520, -1.451e-3
0.519, -1.459e-3
0.518, -1.466e-3
0.517, -1.472e-3
0.516, -1.477e-3
0.515, -1.481e-3
0.514, -1.485e-3
0.513, -1.489e-3
0.512, -1.496e-3
0.511, -1.501e-3
0.510, -1.506e-3
0.509, -1.508e-3
0.508, -1.510e-3
0.507, -1.509e-3
0.506, -1.512e-3
0.505, -1.512e-3
0.504, -1.515e-3
0.503, -1.520e-3
0.502, -1.524e-3
0.501, -1.527e-3
0.500, -1.529e-3
0.499, -1.531e-3
0.498, -1.534e-3
0.497, -1.536e-3
0.496, -1.540e-3
0.495, -1.546e-3
0.494, -1.550e-3
0.493, -1.551e-3
0.492, -1.553e-3
0.491, -1.553e-3
0.490, -1.555e-3
0.489, -1.554e-3
0.488, -1.554e-3
0.487, -1.556e-3
0.486, -1.560e-3
0.485, -1.562e-3
0.484, -1.566e-3
0.483, -1.568e-3
0.482, -1.571e-3
0.481, -1.573e-3
0.480, -1.575e-3
0.479, -1.577e-3
0.478, -1.580e-3
0.477, -1.582e-3
0.476, -1.585e-3
0.475, -1.584e-3
0.474, -1.585e-3
0.473, -1.584e-3
0.472, -1.585e-3
0.471, -1.585e-3
0.470, -1.484e-3
0.471, -1.154e-3
0.472, -8.676e-4
0.473, -6.257e-4
0.474, -4.205e-4
0.475, -2.435e-4
0.476, -9.079e-5
0.477, 4.369e-5
0.478, 1.619e-4
0.479, 2.678e-4
0.480, 3.619e-4
0.481, 4.485e-4
0.482, 5.243e-4
0.483, 5.938e-4
0.484, 6.564e-4
0.485, 7.137e-4
0.486, 7.677e-4
0.487, 8.189e-4
0.488, 8.628e-4
0.489, 9.037e-4
0.490, 9.381e-4
0.491, 9.709e-4
0.492, 1.001e-3
0.493, 1.029e-3
0.494, 1.057e-3
0.495, 1.085e-3
0.496, 1.112e-3
0.497, 1.139e-3
0.498, 1.161e-3
0.499, 1.183e-3
0.500, 1.202e-3
0.501, 1.219e-3
0.502, 1.234e-3
0.503, 1.251e-3
0.504, 1.267e-3
0.505, 1.286e-3
0.506, 1.300e-3
0.507, 1.313e-3
0.508, 1.324e-3
0.509, 1.334e-3
0.510, 1.344e-3
0.511, 1.353e-3
0.512, 1.362e-3
0.513, 1.375e-3
0.514, 1.387e-3
0.515, 1.399e-3
0.516, 1.409e-3
0.517, 1.417e-3
0.518, 1.425e-3
0.519, 1.433e-3
0.520, 1.440e-3
0.521, 1.451e-3
0.522, 1.458e-3
0.523, 1.466e-3
0.524, 1.471e-3
0.525, 1.475e-3
0.526, 1.479e-3
0.527, 1.485e-3
0.528, 1.490e-3
0.529, 1.498e-3
0.530, 1.504e-3
0.531, 1.511e-3
0.532, 1.515e-3
0.533, 1.519e-3
0.534, 1.522e-3
0.535, 1.527e-3
0.536, 1.532e-3
0.537, 1.540e-3
0.538, 1.548e-3
0.539, 1.556e-3
0.540, 1.561e-3
0.541, 1.562e-3
0.542, 1.564e-3
0.543, 1.566e-3
0.544, 1.568e-3
0.545, 1.573e-3
0.546, 1.576e-3
0.547, 1.581e-3
0.548, 1.584e-3
0.549, 1.586e-3
0.550, 1.589e-3
0.551, 1.594e-3
0.552, 1.596e-3
0.553, 1.600e-3
0.554, 1.605e-3
0.555, 1.611e-3
0.556, 1.616e-3
0.557, 1.622e-3
0.558, 1.625e-3
0.559, 1.629e-3
0.560, 1.631e-3
0.561, 1.634e-3
0.562, 1.633e-3
0.563, 1.634e-3
0.564, 1.635e-3
0.565, 1.636e-3
0.566, 1.638e-3
0.567, 1.643e-3
0.568, 1.645e-3
0.569, 1.650e-3
0.570, 1.551e-3
0.569, 1.224e-3
0.568, 9.354e-4
0.567, 6.897e-4
0.566, 4.764e-4
0.565, 2.904e-4
0.564, 1.265e-4
0.563, -1.752e-5
0.562, -1.456e-4
0.561, -2.583e-4
0.560, -3.609e-4
0.559, -4.539e-4
0.558, -5.374e-4
0.557, -6.122e-4
0.556, -6.808e-4
0.555, -7.388e-4
0.554, -7.940e-4
0.553, -8.413e-4
0.552, -8.869e-4
0.551, -9.280e-4
0.550, -9.688e-4
0.549, -1.007e-3
0.548, -1.043e-3
0.547, -1.075e-3
0.546, -1.104e-3
0.545, -1.130e-3
0.544, -1.156e-3
0.543, -1.181e-3
0.542, -1.205e-3
0.541, -1.227e-3
0.540, -1.247e-3
0.539, -1.262e-3
0.538, -1.277e-3
0.537, -1.289e-3
0.536, -1.302e-3
0.535, -1.314e-3
0.534, -1.328e-3
0.533, -1.341e-3
0.532, -1.355e-3
0.531, -1.367e-3
0.530, -1.379e-3
0.529, -1.386e-3
0.528, -1.395e-3
0.527, -1.403e-3
0.526, -1.412e-3
0.525, -1.421e-3
0.524, -1.431e-3
0.523, -1.436e-3
0.522, -1.442e-3
0.521, -1.444e-3
0.520, -1.449e-3
0.519, -1.452e-3
0.518, -1.457e-3
0.517, -1.462e-3
0.516, -1.469e-3
0.515, -1.475e-3
0.514, -1.484e-3
0.513, -1.490e-3
0.512, -1.495e-3
0.511, -1.498e-3
0.510, -1.501e-3
0.509, -1.502e-3
0.508, -1.507e-3
0.507, -1.512e-3
0.506, -1.518e-3
0.505, -1.520e-3
0.504, -1.522e-3
0.503, -1.522e-3
0.502, -1.523e-3
0.501, -1.525e-3
0.500, -1.531e-3
0.499, -1.536e-3
0.498, -1.542e-3
0.497, -1.545e-3
0.496, -1.546e-3
0.495, -1.547e-3
0.494, -1.548e-3
0.493, -1.547e-3
0.492, -1.550e-3
0.491, -1.554e-3
0.490, -1.561e-3
0.489, -1.564e-3
0.488, -1.565e-3
0.487, -1.565e-3
0.486, -1.564e-3
0.485, -1.563e-3
0.484, -1.563e-3
0.483, -1.564e-3
0.482, -1.570e-3
0.481, -1.573e-3
0.480, -1.578e-3
0.479, -1.580e-3
0.478, -1.581e-3
0.477, -1.581e-3
0.476, -1.583e-3
0.475, -1.584e-3
0.474, -1.590e-3
0.473, -1.593e-3
0.472, -1.597e-3
0.471, -1.596e-3
0.470, -1.492e-3
0.471, -1.159e-3
0.472, -8.701e-4
0.473, -6.255e-4
0.474, -4.191e-4
0.475, -2.416e-4
0.476, -8.924e-5
0.477, 4.548e-5
0.478, 1.640e-4
0.479, 2.703e-4
0.480, 3.629e-4
0.481, 4.482e-4
0.482, 5.219e-4
0.483, 5.910e-4
0.484, 6.545e-4
0.485, 7.133e-4
0.486, 7.675e-4
0.487, 8.177e-4
0.488, 8.609e-4
0.489, 9.020e-4
0.490, 9.372e-4
0.491, 9.726e-4
0.492, 1.006e-3
0.493, 1.039e-3
0.494, 1.069e-3
0.495, 1.096e-3
0.496, 1.119e-3
0.497, 1.141e-3
0.498, 1.159e-3
0.499, 1.178e-3
0.500, 1.196e-3
0.501, 1.215e-3
0.502, 1.233e-3
0.503, 1.251e-3
0.504, 1.265e-3
0.505, 1.280e-3
0.506, 1.292e-3
0.507, 1.306e-3
0.508, 1.321e-3
0.509, 1.336e-3
0.510, 1.350e-3
0.511, 1.362e-3
0.512, 1.372e-3
0.513, 1.381e-3
0.514, 1.389e-3
0.515, 1.398e-3
0.516, 1.406e-3
0.517, 1.414e-3
0.518, 1.422e-3
0.519, 1.431e-3
0.520, 1.438e-3
0.521, 1.446e-3
0.522, 1.450e-3
0.523, 1.458e-3
0.524, 1.465e-3
0.525, 1.474e-3
0.526, 1.482e-3
0.527, 1.490e-3
0.528, 1.495e-3
0.529, 1.501e-3
0.530, 1.505e-3
0.531, 1.510e-3
0.532, 1.515e-3
0.533, 1.519e-3
0.534, 1.524e-3
0.535, 1.532e-3
0.536, 1.537e-3
0.537, 1.544e-3
0.538, 1.548e-3
0.539, 1.552e-3
0.540, 1.555e-3
0.541, 1.559e-3
0.542, 1.564e-3
0.543, 1.572e-3
0.544, 1.578e-3
0.545, 1.582e-3
0.546, 1.583e-3
0.547, 1.585e-3
0.548, 1.585e-3
0.549, 1.586e-3
0.550, 1.587e-3
0.551, 1.592e-3
0.552, 1.596e-3
0.553, 1.603e-3
0.554, 1.606e-3
0.555, 1.608e-3
0.556, 1.609e-3
0.557, 1.610e-3
0.558, 1.613e-3
0.559, 1.619e-3
0.560, 1.625e-3
0.561, 1.633e-3
0.562, 1.637e-3
0.563, 1.642e-3
0.564, 1.643e-3
0.565, 1.644e-3
0.566, 1.645e-3
0.567, 1.648e-3
0.568, 1.650e-3
0.569, 1.656e-3
0.570, 1.555e-3
0.569, 1.220e-3
0.568, 9.245e-4
0.567, 6.765e-4
0.566, 4.645e-4
0.565, 2.835e-4
0.564, 1.239e-4
0.563, -1.730e-5
0.562, -1.452e-4
0.561, -2.574e-4
0.560, -3.603e-4
0.559, -4.520e-4
0.558, -5.354e-4
0.557, -6.105e-4
0.556, -6.800e-4
0.555, -7.404e-4
0.554, -7.982e-4
0.553, -8.472e-4
0.552, -8.935e-4
0.551, -9.339e-4
0.550, -9.719e-4
0.549, -1.007e-3
0.548, -1.041e-3
0.547, -1.072e-3
0.546, -1.105e-3
0.545, -1.133e-3
0.544, -1.161e-3
0.543, -1.184e-3
0.542, -1.205e-3
0.541, -1.223e-3
0.540, -1.241e-3
0.539, -1.256e-3
0.538, -1.276e-3
0.537, -1.294e-3
0.536, -1.310e-3
0.535, -1.322e-3
0.534, -1.333e-3
0.533, -1.341e-3
0.532, -1.351e-3
0.531, -1.360e-3
0.530, -1.370e-3
0.529, -1.380e-3
0.528, -1.393e-3
0.527, -1.403e-3
0.526, -1.412e-3
0.525, -1.421e-3
0.524, -1.431e-3
0.523, -1.437e-3
0.522, -1.447e-3
0.521, -1.454e-3
0.520, -1.462e-3
0.519, -1.466e-3
0.518, -1.470e-3
0.517, -1.471e-3
0.516, -1.472e-3
0.515, -1.474e-3
0.514, -1.480e-3
0.513, -1.485e-3
0.512, -1.492e-3
0.511, -1.498e-3
0.510, -1.504e-3
0.509, -1.508e-3
0.508, -1.512e-3
0.507, -1.515e-3
0.506, -1.520e-3
0.505, -1.522e-3
0.504, -1.526e-3
0.503, -1.529e-3
0.502, -1.531e-3
0.501, -1.530e-3
0.500, -1.531e-3
0.499, -1.530e-3
0.498, -1.533e-3
0.497, -1.534e-3
0.496, -1.537e-3
0.495, -1.541e-3
0.494, -1.546e-3
0.493, -1.551e-3
0.492, -1.556e-3
0.491, -1.556e-3
0.490, -1.559e-3
0.489, -1.559e-3
0.488, -1.562e-3
0.487, -1.564e-3
0.486, -1.567e-3
0.485, -1.569e-3
0.484, -1.570e-3
0.483, -1.569e-3
0.482, -1.571e-3
0.481, -1.571e-3
0.480, -1.573e-3
0.479, -1.574e-3
0.478, -1.577e-3
0.477, -1.580e-3
0.476, -1.582e-3
0.475, -1.582e-3
0.474, -1.584e-3
0.473, -1.584e-3
0.472, -1.585e-3
0.471, -1.587e-3
0.470, -1.490e-3
0.471, -1.162e-3
0.472, -8.763e-4
0.473, -6.318e-4
0.474, -4.254e-4
0.475, -2.460e-4
0.476, -9.129e-5
0.477, 4.510e-5
0.478, 1.645e-4
0.479, 2.717e-4
0.480, 3.656e-4
0.481, 4.514e-4
0.482, 5.250e-4
0.483, 5.941e-4
0.484, 6.562e-4
0.485, 7.121e-4
0.486, 7.643e-4
0.487, 8.145e-4
0.488, 8.573e-4
0.489, 9.003e-4
0.490, 9.372e-4
0.491, 9.729e-4
0.492, 1.004e-3
0.493, 1.036e-3
0.494, 1.066e-3
0.495, 1.095e-3
0.496, 1.120e-3
0.497, 1.143e-3
0.498, 1.163e-3
0.499, 1.183e-3
0.500, 1.200e-3
0.501, 1.217e-3
0.502, 1.233e-3
0.503, 1.251e-3
0.504, 1.265e-3
0.505, 1.282e-3
0.506, 1.297e-3
0.507, 1.312e-3
0.508, 1.325e-3
0.509, 1.337e-3
0.510, 1.348e-3
0.511, 1.363e-3
0.512, 1.373e-3
0.513, 1.385e-3
0.514, 1.392e-3
0.515, 1.399e-3
0.516, 1.405e-3
0.517, 1.411e-3
0.518, 1.416e-3
0.519, 1.425e-3
0.520, 1.431e-3
0.521, 1.440e-3
0.522, 1.448e-3
0.523, 1.456e-3
0.524, 1.464e-3
0.525, 1.471e-3
0.526, 1.478e-3
0.527, 1.486e-3
0.528, 1.492e-3
0.529, 1.502e-3
0.530, 1.508e-3
0.531, 1.516e-3
0.532, 1.522e-3
0.533, 1.526e-3
0.534, 1.528e-3
0.535, 1.531e-3
0.536, 1.533e-3
0.537, 1.538e-3
0.538, 1.542e-3
0.539, 1.548e-3
0.540, 1.554e-3
0.541, 1.559e-3
0.542, 1.561e-3
0.543, 1.565e-3
0.544, 1.567e-3
0.545, 1.574e-3
0.546, 1.578e-3
0.547, 1.585e-3
0.548, 1.590e-3
0.549, 1.593e-3
0.550, 1.595e-3
0.551, 1.597e-3
0.552, 1.595e-3
0.553, 1.597e-3
0.554, 1.597e-3
0.555, 1.603e-3
0.556, 1.610e-3
0.557, 1.616e-3
0.558, 1.620e-3
0.559, 1.624e-3
0.560, 1.625e-3
0.561, 1.629e-3
0.562, 1.631e-3
0.563, 1.637e-3
0.564, 1.641e-3
0.565, 1.644e-3
0.566, 1.646e-3
0.567, 1.648e-3
0.568, 1.646e-3
0.569, 1.648e-3
0.570, 1.546e-3
0.569, 1.216e-3
0.568, 9.255e-4
0.567, 6.795e-4
0.566, 4.674e-4
0.565, 2.843e-4
0.564, 1.227e-4
0.563, -1.863e-5
0.562, -1.458e-4
0.561, -2.568e-4
0.560, -3.584e-4
0.559, -4.491e-4
0.558, -5.319e-4
0.557, -6.063e-4
0.556, -6.751e-4
0.555, -7.346e-4
0.554, -7.917e-4
0.553, -8.432e-4
0.552, -8.935e-4
0.551, -9.392e-4
0.550, -9.813e-4
0.549, -1.017e-3
0.548, -1.050e-3
0.547, -1.077e-3
0.546, -1.105e-3
0.545, -1.128e-3
0.544, -1.152e-3
0.543, -1.173e-3
0.542, -1.196e-3
0.541, -1.217e-3
0.540, -1.239e-3
0.539, -1.256e-3
0.538, -1.276e-3
0.537, -1.292e-3
0.536, -1.307e-3
0.535, -1.322e-3
0.534, -1.336e-3
0.533, -1.349e-3
0.532, -1.363e-3
0.531, -1.372e-3
0.530, -1.382e-3
0.529, -1.387e-3
0.528, -1.394e-3
0.527, -1.400e-3
0.526, -1.408e-3
0.525, -1.417e-3
0.524, -1.428e-3
0.523, -1.433e-3
0.522, -1.441e-3
0.521, -1.444e-3
0.520, -1.449e-3
0.519, -1.455e-3
0.518, -1.463e-3
0.517, -1.473e-3
0.516, -1.482e-3
0.515, -1.486e-3
0.514, -1.491e-3
0.513, -1.492e-3
0.512, -1.496e-3
0.511, -1.497e-3
0.510, -1.500e-3
0.509, -1.502e-3
0.508, -1.507e-3
0.507, -1.511e-3
0.506, -1.518e-3
0.505, -1.521e-3
0.504, -1.524e-3
0.503, -1.526e-3
0.502, -1.528e-3
0.501, -1.530e-3
0.500, -1.536e-3
0.499, -1.541e-3
0.498, -1.549e-3
0.497, -1.551e-3
0.496, -1.553e-3
0.495, -1.552e-3
0.494, -1.550e-3
0.493, -1.547e-3
0.492, -1.547e-3
0.491, -1.546e-3
0.490, -1.551e-3
0.489, -1.554e-3
0.488, -1.559e-3
0.487, -1.562e-3
0.486, -1.566e-3
0.485, -1.570e-3
0.484, -1.574e-3
0.483, -1.576e-3
0.482, -1.581e-3
0.481, -1.581e-3
0.480, -1.581e-3
0.479, -1.580e-3
0.478, -1.577e-3
0.477, -1.574e-3
0.476, -1.575e-3
0.475, -1.575e-3
0.474, -1.579e-3
0.473, -1.582e-3
0.472, -1.586e-3
0.471, -1.587e-3
