Nov. 23, 2024   17:49:08
Cyclic Voltammetry
File: e:\2023data\yx\20241123\6-1\cv-20.bin
Data Source:  Experiment
Instrument Model:  CHI660E
Header: 
Note: 

Init E (V) = 0.47
High E (V) = 0.57
Low E (V) = 0.47
Init P/N = P
Scan Rate (V/s) = 0.02
Segment = 10
Sample Interval (V) = 0.001
Quiet Time (sec) = 2
Sensitivity (A/V) = 0.001

Results:

Channel 1:
Segment 1:

Segment 2:

Segment 3:

Segment 4:

Segment 5:

Segment 6:

Segment 7:

Segment 8:

Segment 9:

Segment 10:

Potential/V, Current/A

0.470, -6.196e-5
0.471, 4.281e-5
0.472, 1.013e-4
0.473, 1.435e-4
0.474, 1.728e-4
0.475, 1.884e-4
0.476, 2.053e-4
0.477, 2.202e-4
0.478, 2.289e-4
0.479, 2.366e-4
0.480, 2.479e-4
0.481, 2.555e-4
0.482, 2.575e-4
0.483, 2.651e-4
0.484, 2.726e-4
0.485, 2.743e-4
0.486, 2.782e-4
0.487, 2.865e-4
0.488, 2.894e-4
0.489, 2.900e-4
0.490, 2.951e-4
0.491, 2.996e-4
0.492, 2.998e-4
0.493, 3.038e-4
0.494, 3.095e-4
0.495, 3.107e-4
0.496, 3.102e-4
0.497, 3.158e-4
0.498, 3.195e-4
0.499, 3.170e-4
0.500, 3.217e-4
0.501, 3.254e-4
0.502, 3.239e-4
0.503, 3.257e-4
0.504, 3.304e-4
0.505, 3.318e-4
0.506, 3.294e-4
0.507, 3.342e-4
0.508, 3.378e-4
0.509, 3.336e-4
0.510, 3.367e-4
0.511, 3.409e-4
0.512, 3.386e-4
0.513, 3.398e-4
0.514, 3.436e-4
0.515, 3.443e-4
0.516, 3.418e-4
0.517, 3.444e-4
0.518, 3.484e-4
0.519, 3.472e-4
0.520, 3.475e-4
0.521, 3.510e-4
0.522, 3.498e-4
0.523, 3.482e-4
0.524, 3.515e-4
0.525, 3.538e-4
0.526, 3.499e-4
0.527, 3.532e-4
0.528, 3.557e-4
0.529, 3.538e-4
0.530, 3.538e-4
0.531, 3.571e-4
0.532, 3.585e-4
0.533, 3.543e-4
0.534, 3.576e-4
0.535, 3.613e-4
0.536, 3.567e-4
0.537, 3.578e-4
0.538, 3.622e-4
0.539, 3.602e-4
0.540, 3.581e-4
0.541, 3.612e-4
0.542, 3.635e-4
0.543, 3.593e-4
0.544, 3.610e-4
0.545, 3.657e-4
0.546, 3.601e-4
0.547, 3.603e-4
0.548, 3.653e-4
0.549, 3.658e-4
0.550, 3.614e-4
0.551, 3.653e-4
0.552, 3.668e-4
0.553, 3.631e-4
0.554, 3.643e-4
0.555, 3.676e-4
0.556, 3.669e-4
0.557, 3.638e-4
0.558, 3.663e-4
0.559, 3.691e-4
0.560, 3.649e-4
0.561, 3.671e-4
0.562, 3.697e-4
0.563, 3.665e-4
0.564, 3.664e-4
0.565, 3.693e-4
0.566, 3.690e-4
0.567, 3.665e-4
0.568, 3.672e-4
0.569, 3.713e-4
0.570, 2.766e-4
0.569, 6.336e-5
0.568, -5.287e-5
0.567, -1.283e-4
0.566, -1.797e-4
0.565, -2.105e-4
0.564, -2.332e-4
0.563, -2.551e-4
0.562, -2.705e-4
0.561, -2.766e-4
0.560, -2.877e-4
0.559, -2.986e-4
0.558, -3.006e-4
0.557, -3.052e-4
0.556, -3.144e-4
0.555, -3.166e-4
0.554, -3.162e-4
0.553, -3.239e-4
0.552, -3.283e-4
0.551, -3.262e-4
0.550, -3.300e-4
0.549, -3.352e-4
0.548, -3.339e-4
0.547, -3.334e-4
0.546, -3.383e-4
0.545, -3.393e-4
0.544, -3.364e-4
0.543, -3.406e-4
0.542, -3.430e-4
0.541, -3.411e-4
0.540, -3.414e-4
0.539, -3.474e-4
0.538, -3.452e-4
0.537, -3.435e-4
0.536, -3.478e-4
0.535, -3.500e-4
0.534, -3.459e-4
0.533, -3.489e-4
0.532, -3.521e-4
0.531, -3.485e-4
0.530, -3.490e-4
0.529, -3.522e-4
0.528, -3.515e-4
0.527, -3.491e-4
0.526, -3.516e-4
0.525, -3.547e-4
0.524, -3.509e-4
0.523, -3.518e-4
0.522, -3.554e-4
0.521, -3.534e-4
0.520, -3.517e-4
0.519, -3.561e-4
0.518, -3.567e-4
0.517, -3.521e-4
0.516, -3.540e-4
0.515, -3.577e-4
0.514, -3.549e-4
0.513, -3.532e-4
0.512, -3.587e-4
0.511, -3.591e-4
0.510, -3.543e-4
0.509, -3.590e-4
0.508, -3.608e-4
0.507, -3.550e-4
0.506, -3.577e-4
0.505, -3.610e-4
0.504, -3.583e-4
0.503, -3.571e-4
0.502, -3.589e-4
0.501, -3.613e-4
0.500, -3.578e-4
0.499, -3.600e-4
0.498, -3.627e-4
0.497, -3.602e-4
0.496, -3.602e-4
0.495, -3.632e-4
0.494, -3.635e-4
0.493, -3.583e-4
0.492, -3.621e-4
0.491, -3.656e-4
0.490, -3.617e-4
0.489, -3.611e-4
0.488, -3.651e-4
0.487, -3.639e-4
0.486, -3.594e-4
0.485, -3.635e-4
0.484, -3.666e-4
0.483, -3.622e-4
0.482, -3.644e-4
0.481, -3.677e-4
0.480, -3.648e-4
0.479, -3.632e-4
0.478, -3.660e-4
0.477, -3.681e-4
0.476, -3.636e-4
0.475, -3.654e-4
0.474, -3.707e-4
0.473, -3.649e-4
0.472, -3.660e-4
0.471, -3.703e-4
0.470, -2.786e-4
0.471, -6.933e-5
0.472, 4.046e-5
0.473, 1.077e-4
0.474, 1.560e-4
0.475, 1.857e-4
0.476, 2.053e-4
0.477, 2.240e-4
0.478, 2.407e-4
0.479, 2.488e-4
0.480, 2.570e-4
0.481, 2.696e-4
0.482, 2.742e-4
0.483, 2.776e-4
0.484, 2.867e-4
0.485, 2.917e-4
0.486, 2.916e-4
0.487, 2.976e-4
0.488, 3.042e-4
0.489, 3.053e-4
0.490, 3.059e-4
0.491, 3.115e-4
0.492, 3.151e-4
0.493, 3.132e-4
0.494, 3.178e-4
0.495, 3.233e-4
0.496, 3.214e-4
0.497, 3.226e-4
0.498, 3.273e-4
0.499, 3.283e-4
0.500, 3.282e-4
0.501, 3.319e-4
0.502, 3.345e-4
0.503, 3.321e-4
0.504, 3.330e-4
0.505, 3.385e-4
0.506, 3.377e-4
0.507, 3.366e-4
0.508, 3.403e-4
0.509, 3.418e-4
0.510, 3.395e-4
0.511, 3.416e-4
0.512, 3.459e-4
0.513, 3.433e-4
0.514, 3.435e-4
0.515, 3.475e-4
0.516, 3.476e-4
0.517, 3.439e-4
0.518, 3.482e-4
0.519, 3.507e-4
0.520, 3.466e-4
0.521, 3.484e-4
0.522, 3.524e-4
0.523, 3.498e-4
0.524, 3.490e-4
0.525, 3.531e-4
0.526, 3.531e-4
0.527, 3.506e-4
0.528, 3.529e-4
0.529, 3.566e-4
0.530, 3.524e-4
0.531, 3.535e-4
0.532, 3.579e-4
0.533, 3.547e-4
0.534, 3.526e-4
0.535, 3.572e-4
0.536, 3.591e-4
0.537, 3.543e-4
0.538, 3.579e-4
0.539, 3.589e-4
0.540, 3.557e-4
0.541, 3.556e-4
0.542, 3.599e-4
0.543, 3.600e-4
0.544, 3.562e-4
0.545, 3.605e-4
0.546, 3.616e-4
0.547, 3.575e-4
0.548, 3.600e-4
0.549, 3.626e-4
0.550, 3.614e-4
0.551, 3.598e-4
0.552, 3.626e-4
0.553, 3.630e-4
0.554, 3.592e-4
0.555, 3.617e-4
0.556, 3.655e-4
0.557, 3.611e-4
0.558, 3.609e-4
0.559, 3.657e-4
0.560, 3.642e-4
0.561, 3.603e-4
0.562, 3.641e-4
0.563, 3.662e-4
0.564, 3.628e-4
0.565, 3.639e-4
0.566, 3.669e-4
0.567, 3.662e-4
0.568, 3.641e-4
0.569, 3.673e-4
0.570, 2.761e-4
0.569, 6.025e-5
0.568, -5.761e-5
0.567, -1.270e-4
0.566, -1.772e-4
0.565, -2.115e-4
0.564, -2.313e-4
0.563, -2.495e-4
0.562, -2.662e-4
0.561, -2.745e-4
0.560, -2.810e-4
0.559, -2.920e-4
0.558, -2.988e-4
0.557, -2.998e-4
0.556, -3.063e-4
0.555, -3.135e-4
0.554, -3.129e-4
0.553, -3.150e-4
0.552, -3.209e-4
0.551, -3.237e-4
0.550, -3.220e-4
0.549, -3.257e-4
0.548, -3.301e-4
0.547, -3.261e-4
0.546, -3.289e-4
0.545, -3.341e-4
0.544, -3.324e-4
0.543, -3.315e-4
0.542, -3.353e-4
0.541, -3.378e-4
0.540, -3.346e-4
0.539, -3.366e-4
0.538, -3.407e-4
0.537, -3.385e-4
0.536, -3.379e-4
0.535, -3.425e-4
0.534, -3.424e-4
0.533, -3.383e-4
0.532, -3.425e-4
0.531, -3.455e-4
0.530, -3.419e-4
0.529, -3.421e-4
0.528, -3.465e-4
0.527, -3.451e-4
0.526, -3.405e-4
0.525, -3.451e-4
0.524, -3.479e-4
0.523, -3.431e-4
0.522, -3.455e-4
0.521, -3.498e-4
0.520, -3.450e-4
0.519, -3.455e-4
0.518, -3.496e-4
0.517, -3.465e-4
0.516, -3.448e-4
0.515, -3.490e-4
0.514, -3.502e-4
0.513, -3.453e-4
0.512, -3.481e-4
0.511, -3.525e-4
0.510, -3.484e-4
0.509, -3.466e-4
0.508, -3.505e-4
0.507, -3.516e-4
0.506, -3.481e-4
0.505, -3.506e-4
0.504, -3.531e-4
0.503, -3.496e-4
0.502, -3.497e-4
0.501, -3.530e-4
0.500, -3.524e-4
0.499, -3.494e-4
0.498, -3.536e-4
0.497, -3.559e-4
0.496, -3.519e-4
0.495, -3.518e-4
0.494, -3.542e-4
0.493, -3.529e-4
0.492, -3.509e-4
0.491, -3.550e-4
0.490, -3.563e-4
0.489, -3.520e-4
0.488, -3.523e-4
0.487, -3.567e-4
0.486, -3.533e-4
0.485, -3.527e-4
0.484, -3.575e-4
0.483, -3.572e-4
0.482, -3.540e-4
0.481, -3.578e-4
0.480, -3.595e-4
0.479, -3.551e-4
0.478, -3.558e-4
0.477, -3.606e-4
0.476, -3.577e-4
0.475, -3.544e-4
0.474, -3.594e-4
0.473, -3.601e-4
0.472, -3.555e-4
0.471, -3.576e-4
0.470, -2.715e-4
0.471, -6.311e-5
0.472, 5.105e-5
0.473, 1.143e-4
0.474, 1.597e-4
0.475, 1.938e-4
0.476, 2.134e-4
0.477, 2.289e-4
0.478, 2.453e-4
0.479, 2.563e-4
0.480, 2.622e-4
0.481, 2.724e-4
0.482, 2.810e-4
0.483, 2.821e-4
0.484, 2.886e-4
0.485, 2.953e-4
0.486, 2.990e-4
0.487, 2.989e-4
0.488, 3.043e-4
0.489, 3.100e-4
0.490, 3.086e-4
0.491, 3.127e-4
0.492, 3.181e-4
0.493, 3.168e-4
0.494, 3.187e-4
0.495, 3.239e-4
0.496, 3.249e-4
0.497, 3.241e-4
0.498, 3.280e-4
0.499, 3.308e-4
0.500, 3.298e-4
0.501, 3.305e-4
0.502, 3.342e-4
0.503, 3.348e-4
0.504, 3.323e-4
0.505, 3.368e-4
0.506, 3.403e-4
0.507, 3.353e-4
0.508, 3.392e-4
0.509, 3.434e-4
0.510, 3.413e-4
0.511, 3.398e-4
0.512, 3.441e-4
0.513, 3.453e-4
0.514, 3.415e-4
0.515, 3.434e-4
0.516, 3.491e-4
0.517, 3.441e-4
0.518, 3.464e-4
0.519, 3.504e-4
0.520, 3.480e-4
0.521, 3.467e-4
0.522, 3.504e-4
0.523, 3.516e-4
0.524, 3.487e-4
0.525, 3.505e-4
0.526, 3.542e-4
0.527, 3.514e-4
0.528, 3.492e-4
0.529, 3.518e-4
0.530, 3.539e-4
0.531, 3.489e-4
0.532, 3.531e-4
0.533, 3.559e-4
0.534, 3.536e-4
0.535, 3.518e-4
0.536, 3.554e-4
0.537, 3.554e-4
0.538, 3.534e-4
0.539, 3.555e-4
0.540, 3.588e-4
0.541, 3.542e-4
0.542, 3.552e-4
0.543, 3.588e-4
0.544, 3.562e-4
0.545, 3.556e-4
0.546, 3.588e-4
0.547, 3.590e-4
0.548, 3.558e-4
0.549, 3.585e-4
0.550, 3.612e-4
0.551, 3.581e-4
0.552, 3.576e-4
0.553, 3.616e-4
0.554, 3.606e-4
0.555, 3.581e-4
0.556, 3.608e-4
0.557, 3.618e-4
0.558, 3.577e-4
0.559, 3.591e-4
0.560, 3.634e-4
0.561, 3.618e-4
0.562, 3.592e-4
0.563, 3.626e-4
0.564, 3.645e-4
0.565, 3.596e-4
0.566, 3.633e-4
0.567, 3.653e-4
0.568, 3.617e-4
0.569, 3.634e-4
0.570, 2.745e-4
0.569, 6.173e-5
0.568, -6.054e-5
0.567, -1.292e-4
0.566, -1.745e-4
0.565, -2.110e-4
0.564, -2.341e-4
0.563, -2.481e-4
0.562, -2.637e-4
0.561, -2.765e-4
0.560, -2.813e-4
0.559, -2.883e-4
0.558, -2.970e-4
0.557, -3.004e-4
0.556, -3.030e-4
0.555, -3.092e-4
0.554, -3.147e-4
0.553, -3.128e-4
0.552, -3.172e-4
0.551, -3.234e-4
0.550, -3.215e-4
0.549, -3.213e-4
0.548, -3.271e-4
0.547, -3.279e-4
0.546, -3.256e-4
0.545, -3.287e-4
0.544, -3.332e-4
0.543, -3.297e-4
0.542, -3.307e-4
0.541, -3.356e-4
0.540, -3.345e-4
0.539, -3.318e-4
0.538, -3.367e-4
0.537, -3.391e-4
0.536, -3.347e-4
0.535, -3.364e-4
0.534, -3.393e-4
0.533, -3.372e-4
0.532, -3.391e-4
0.531, -3.415e-4
0.530, -3.422e-4
0.529, -3.379e-4
0.528, -3.404e-4
0.527, -3.426e-4
0.526, -3.396e-4
0.525, -3.397e-4
0.524, -3.451e-4
0.523, -3.430e-4
0.522, -3.398e-4
0.521, -3.442e-4
0.520, -3.454e-4
0.519, -3.418e-4
0.518, -3.444e-4
0.517, -3.476e-4
0.516, -3.433e-4
0.515, -3.426e-4
0.514, -3.464e-4
0.513, -3.451e-4
0.512, -3.429e-4
0.511, -3.456e-4
0.510, -3.481e-4
0.509, -3.452e-4
0.508, -3.463e-4
0.507, -3.489e-4
0.506, -3.470e-4
0.505, -3.446e-4
0.504, -3.479e-4
0.503, -3.499e-4
0.502, -3.444e-4
0.501, -3.476e-4
0.500, -3.507e-4
0.499, -3.486e-4
0.498, -3.473e-4
0.497, -3.507e-4
0.496, -3.493e-4
0.495, -3.463e-4
0.494, -3.491e-4
0.493, -3.521e-4
0.492, -3.490e-4
0.491, -3.482e-4
0.490, -3.521e-4
0.489, -3.520e-4
0.488, -3.482e-4
0.487, -3.513e-4
0.486, -3.536e-4
0.485, -3.493e-4
0.484, -3.502e-4
0.483, -3.543e-4
0.482, -3.512e-4
0.481, -3.504e-4
0.480, -3.544e-4
0.479, -3.550e-4
0.478, -3.498e-4
0.477, -3.525e-4
0.476, -3.562e-4
0.475, -3.519e-4
0.474, -3.517e-4
0.473, -3.568e-4
0.472, -3.549e-4
0.471, -3.515e-4
0.470, -2.646e-4
0.471, -6.180e-5
0.472, 5.418e-5
0.473, 1.212e-4
0.474, 1.616e-4
0.475, 1.943e-4
0.476, 2.177e-4
0.477, 2.317e-4
0.478, 2.454e-4
0.479, 2.596e-4
0.480, 2.667e-4
0.481, 2.721e-4
0.482, 2.808e-4
0.483, 2.873e-4
0.484, 2.891e-4
0.485, 2.939e-4
0.486, 3.022e-4
0.487, 3.027e-4
0.488, 3.034e-4
0.489, 3.096e-4
0.490, 3.126e-4
0.491, 3.107e-4
0.492, 3.170e-4
0.493, 3.217e-4
0.494, 3.186e-4
0.495, 3.203e-4
0.496, 3.261e-4
0.497, 3.267e-4
0.498, 3.255e-4
0.499, 3.298e-4
0.500, 3.333e-4
0.501, 3.283e-4
0.502, 3.329e-4
0.503, 3.367e-4
0.504, 3.321e-4
0.505, 3.346e-4
0.506, 3.397e-4
0.507, 3.390e-4
0.508, 3.380e-4
0.509, 3.421e-4
0.510, 3.432e-4
0.511, 3.393e-4
0.512, 3.419e-4
0.513, 3.448e-4
0.514, 3.431e-4
0.515, 3.430e-4
0.516, 3.460e-4
0.517, 3.472e-4
0.518, 3.451e-4
0.519, 3.456e-4
0.520, 3.491e-4
0.521, 3.457e-4
0.522, 3.463e-4
0.523, 3.491e-4
0.524, 3.497e-4
0.525, 3.469e-4
0.526, 3.498e-4
0.527, 3.535e-4
0.528, 3.489e-4
0.529, 3.495e-4
0.530, 3.534e-4
0.531, 3.515e-4
0.532, 3.496e-4
0.533, 3.536e-4
0.534, 3.554e-4
0.535, 3.505e-4
0.536, 3.512e-4
0.537, 3.568e-4
0.538, 3.530e-4
0.539, 3.530e-4
0.540, 3.565e-4
0.541, 3.561e-4
0.542, 3.521e-4
0.543, 3.554e-4
0.544, 3.587e-4
0.545, 3.540e-4
0.546, 3.543e-4
0.547, 3.574e-4
0.548, 3.578e-4
0.549, 3.542e-4
0.550, 3.568e-4
0.551, 3.604e-4
0.552, 3.553e-4
0.553, 3.577e-4
0.554, 3.605e-4
0.555, 3.572e-4
0.556, 3.559e-4
0.557, 3.609e-4
0.558, 3.600e-4
0.559, 3.556e-4
0.560, 3.587e-4
0.561, 3.629e-4
0.562, 3.584e-4
0.563, 3.591e-4
0.564, 3.627e-4
0.565, 3.608e-4
0.566, 3.582e-4
0.567, 3.617e-4
0.568, 3.645e-4
0.569, 3.608e-4
0.570, 2.697e-4
0.569, 6.135e-5
0.568, -5.931e-5
0.567, -1.335e-4
0.566, -1.754e-4
0.565, -2.079e-4
0.564, -2.355e-4
0.563, -2.511e-4
0.562, -2.609e-4
0.561, -2.740e-4
0.560, -2.835e-4
0.559, -2.871e-4
0.558, -2.951e-4
0.557, -3.027e-4
0.556, -3.031e-4
0.555, -3.044e-4
0.554, -3.139e-4
0.553, -3.154e-4
0.552, -3.132e-4
0.551, -3.181e-4
0.550, -3.222e-4
0.549, -3.200e-4
0.548, -3.236e-4
0.547, -3.271e-4
0.546, -3.254e-4
0.545, -3.257e-4
0.544, -3.298e-4
0.543, -3.310e-4
0.542, -3.275e-4
0.541, -3.323e-4
0.540, -3.355e-4
0.539, -3.323e-4
0.538, -3.327e-4
0.537, -3.373e-4
0.536, -3.368e-4
0.535, -3.335e-4
0.534, -3.357e-4
0.533, -3.396e-4
0.532, -3.362e-4
0.531, -3.375e-4
0.530, -3.409e-4
0.529, -3.387e-4
0.528, -3.372e-4
0.527, -3.413e-4
0.526, -3.412e-4
0.525, -3.368e-4
0.524, -3.402e-4
0.523, -3.420e-4
0.522, -3.392e-4
0.521, -3.397e-4
0.520, -3.433e-4
0.519, -3.433e-4
0.518, -3.389e-4
0.517, -3.430e-4
0.516, -3.456e-4
0.515, -3.399e-4
0.514, -3.408e-4
0.513, -3.460e-4
0.512, -3.448e-4
0.511, -3.429e-4
0.510, -3.447e-4
0.509, -3.457e-4
0.508, -3.417e-4
0.507, -3.431e-4
0.506, -3.467e-4
0.505, -3.429e-4
0.504, -3.431e-4
0.503, -3.467e-4
0.502, -3.454e-4
0.501, -3.427e-4
0.500, -3.473e-4
0.499, -3.501e-4
0.498, -3.455e-4
0.497, -3.462e-4
0.496, -3.492e-4
0.495, -3.483e-4
0.494, -3.443e-4
0.493, -3.476e-4
0.492, -3.498e-4
0.491, -3.444e-4
0.490, -3.461e-4
0.489, -3.504e-4
0.488, -3.485e-4
0.487, -3.465e-4
0.486, -3.502e-4
0.485, -3.513e-4
0.484, -3.457e-4
0.483, -3.499e-4
0.482, -3.537e-4
0.481, -3.489e-4
0.480, -3.480e-4
0.479, -3.535e-4
0.478, -3.506e-4
0.477, -3.472e-4
0.476, -3.526e-4
0.475, -3.532e-4
0.474, -3.482e-4
0.473, -3.520e-4
0.472, -3.556e-4
0.471, -3.522e-4
0.470, -2.601e-4
0.471, -5.877e-5
0.472, 5.463e-5
0.473, 1.260e-4
0.474, 1.665e-4
0.475, 1.952e-4
0.476, 2.214e-4
0.477, 2.371e-4
0.478, 2.459e-4
0.479, 2.590e-4
0.480, 2.701e-4
0.481, 2.742e-4
0.482, 2.797e-4
0.483, 2.890e-4
0.484, 2.924e-4
0.485, 2.932e-4
0.486, 3.003e-4
0.487, 3.053e-4
0.488, 3.030e-4
0.489, 3.085e-4
0.490, 3.140e-4
0.491, 3.136e-4
0.492, 3.147e-4
0.493, 3.202e-4
0.494, 3.230e-4
0.495, 3.206e-4
0.496, 3.244e-4
0.497, 3.285e-4
0.498, 3.268e-4
0.499, 3.275e-4
0.500, 3.321e-4
0.501, 3.321e-4
0.502, 3.312e-4
0.503, 3.343e-4
0.504, 3.365e-4
0.505, 3.339e-4
0.506, 3.359e-4
0.507, 3.396e-4
0.508, 3.390e-4
0.509, 3.361e-4
0.510, 3.404e-4
0.511, 3.423e-4
0.512, 3.383e-4
0.513, 3.417e-4
0.514, 3.462e-4
0.515, 3.420e-4
0.516, 3.430e-4
0.517, 3.468e-4
0.518, 3.475e-4
0.519, 3.440e-4
0.520, 3.457e-4
0.521, 3.490e-4
0.522, 3.456e-4
0.523, 3.453e-4
0.524, 3.504e-4
0.525, 3.486e-4
0.526, 3.469e-4
0.527, 3.485e-4
0.528, 3.517e-4
0.529, 3.484e-4
0.530, 3.494e-4
0.531, 3.538e-4
0.532, 3.510e-4
0.533, 3.488e-4
0.534, 3.528e-4
0.535, 3.519e-4
0.536, 3.499e-4
0.537, 3.526e-4
0.538, 3.555e-4
0.539, 3.511e-4
0.540, 3.523e-4
0.541, 3.561e-4
0.542, 3.535e-4
0.543, 3.522e-4
0.544, 3.553e-4
0.545, 3.551e-4
0.546, 3.524e-4
0.547, 3.551e-4
0.548, 3.575e-4
0.549, 3.535e-4
0.550, 3.537e-4
0.551, 3.569e-4
0.552, 3.566e-4
0.553, 3.541e-4
0.554, 3.571e-4
0.555, 3.595e-4
0.556, 3.553e-4
0.557, 3.564e-4
0.558, 3.605e-4
0.559, 3.592e-4
0.560, 3.560e-4
0.561, 3.601e-4
0.562, 3.608e-4
0.563, 3.569e-4
0.564, 3.597e-4
0.565, 3.612e-4
0.566, 3.587e-4
0.567, 3.583e-4
0.568, 3.619e-4
0.569, 3.622e-4
0.570, 2.653e-4
0.569, 5.761e-5
0.568, -5.825e-5
0.567, -1.337e-4
0.566, -1.797e-4
0.565, -2.080e-4
0.564, -2.329e-4
0.563, -2.542e-4
0.562, -2.638e-4
0.561, -2.725e-4
0.560, -2.835e-4
0.559, -2.885e-4
0.558, -2.903e-4
0.557, -3.003e-4
0.556, -3.059e-4
0.555, -3.046e-4
0.554, -3.095e-4
0.553, -3.156e-4
0.552, -3.158e-4
0.551, -3.160e-4
0.550, -3.209e-4
0.549, -3.237e-4
0.548, -3.207e-4
0.547, -3.236e-4
0.546, -3.278e-4
0.545, -3.261e-4
0.544, -3.265e-4
0.543, -3.313e-4
0.542, -3.310e-4
0.541, -3.285e-4
0.540, -3.325e-4
0.539, -3.353e-4
0.538, -3.309e-4
0.537, -3.329e-4
0.536, -3.358e-4
0.535, -3.355e-4
0.534, -3.322e-4
0.533, -3.371e-4
0.532, -3.382e-4
0.531, -3.342e-4
0.530, -3.375e-4
0.529, -3.408e-4
0.528, -3.366e-4
0.527, -3.359e-4
0.526, -3.393e-4
0.525, -3.399e-4
0.524, -3.369e-4
0.523, -3.398e-4
0.522, -3.421e-4
0.521, -3.368e-4
0.520, -3.386e-4
0.519, -3.436e-4
0.518, -3.401e-4
0.517, -3.389e-4
0.516, -3.429e-4
0.515, -3.421e-4
0.514, -3.392e-4
0.513, -3.425e-4
0.512, -3.451e-4
0.511, -3.414e-4
0.510, -3.410e-4
0.509, -3.443e-4
0.508, -3.443e-4
0.507, -3.396e-4
0.506, -3.433e-4
0.505, -3.465e-4
0.504, -3.422e-4
0.503, -3.429e-4
0.502, -3.471e-4
0.501, -3.436e-4
0.500, -3.421e-4
0.499, -3.452e-4
0.498, -3.465e-4
0.497, -3.424e-4
0.496, -3.456e-4
0.495, -3.483e-4
0.494, -3.434e-4
0.493, -3.445e-4
0.492, -3.485e-4
0.491, -3.450e-4
0.490, -3.441e-4
0.489, -3.475e-4
0.488, -3.486e-4
0.487, -3.452e-4
0.486, -3.459e-4
0.485, -3.492e-4
0.484, -3.469e-4
0.483, -3.448e-4
0.482, -3.501e-4
0.481, -3.512e-4
0.480, -3.462e-4
0.479, -3.485e-4
0.478, -3.518e-4
0.477, -3.482e-4
0.476, -3.476e-4
0.475, -3.506e-4
0.474, -3.501e-4
0.473, -3.473e-4
0.472, -3.502e-4
0.471, -3.527e-4
