Nov. 23, 2024   17:49:37
Cyclic Voltammetry
File: e:\2023data\yx\20241123\6-1\cv-40.bin
Data Source:  Experiment
Instrument Model:  CHI660E
Header: 
Note: 

Init E (V) = 0.47
High E (V) = 0.57
Low E (V) = 0.47
Init P/N = P
Scan Rate (V/s) = 0.04
Segment = 10
Sample Interval (V) = 0.001
Quiet Time (sec) = 2
Sensitivity (A/V) = 0.001

Results:

Channel 1:
Segment 1:

Segment 2:

Segment 3:

Segment 4:

Segment 5:

Segment 6:

Segment 7:

Segment 8:

Segment 9:

Segment 10:

Potential/V, Current/A

0.470, 2.787e-5
0.471, 1.529e-4
0.472, 2.542e-4
0.473, 3.283e-4
0.474, 3.836e-4
0.475, 4.274e-4
0.476, 4.600e-4
0.477, 4.827e-4
0.478, 5.015e-4
0.479, 5.194e-4
0.480, 5.354e-4
0.481, 5.485e-4
0.482, 5.621e-4
0.483, 5.731e-4
0.484, 5.788e-4
0.485, 5.838e-4
0.486, 5.919e-4
0.487, 5.987e-4
0.488, 6.051e-4
0.489, 6.128e-4
0.490, 6.154e-4
0.491, 6.155e-4
0.492, 6.184e-4
0.493, 6.231e-4
0.494, 6.251e-4
0.495, 6.321e-4
0.496, 6.387e-4
0.497, 6.406e-4
0.498, 6.408e-4
0.499, 6.441e-4
0.500, 6.470e-4
0.501, 6.485e-4
0.502, 6.532e-4
0.503, 6.571e-4
0.504, 6.569e-4
0.505, 6.560e-4
0.506, 6.584e-4
0.507, 6.627e-4
0.508, 6.640e-4
0.509, 6.664e-4
0.510, 6.676e-4
0.511, 6.669e-4
0.512, 6.676e-4
0.513, 6.701e-4
0.514, 6.719e-4
0.515, 6.742e-4
0.516, 6.777e-4
0.517, 6.772e-4
0.518, 6.735e-4
0.519, 6.716e-4
0.520, 6.764e-4
0.521, 6.813e-4
0.522, 6.833e-4
0.523, 6.864e-4
0.524, 6.855e-4
0.525, 6.852e-4
0.526, 6.854e-4
0.527, 6.854e-4
0.528, 6.865e-4
0.529, 6.896e-4
0.530, 6.930e-4
0.531, 6.920e-4
0.532, 6.893e-4
0.533, 6.888e-4
0.534, 6.927e-4
0.535, 6.942e-4
0.536, 6.956e-4
0.537, 6.989e-4
0.538, 6.986e-4
0.539, 6.961e-4
0.540, 6.964e-4
0.541, 6.994e-4
0.542, 7.011e-4
0.543, 7.038e-4
0.544, 7.034e-4
0.545, 6.989e-4
0.546, 6.966e-4
0.547, 7.008e-4
0.548, 7.049e-4
0.549, 7.063e-4
0.550, 7.099e-4
0.551, 7.100e-4
0.552, 7.055e-4
0.553, 7.030e-4
0.554, 7.052e-4
0.555, 7.084e-4
0.556, 7.114e-4
0.557, 7.122e-4
0.558, 7.090e-4
0.559, 7.056e-4
0.560, 7.063e-4
0.561, 7.092e-4
0.562, 7.105e-4
0.563, 7.141e-4
0.564, 7.157e-4
0.565, 7.126e-4
0.566, 7.101e-4
0.567, 7.113e-4
0.568, 7.142e-4
0.569, 7.154e-4
0.570, 6.546e-4
0.569, 3.953e-4
0.568, 1.799e-4
0.567, 2.505e-5
0.566, -8.983e-5
0.565, -1.762e-4
0.564, -2.432e-4
0.563, -2.984e-4
0.562, -3.456e-4
0.561, -3.839e-4
0.560, -4.168e-4
0.559, -4.442e-4
0.558, -4.634e-4
0.557, -4.794e-4
0.556, -4.950e-4
0.555, -5.112e-4
0.554, -5.270e-4
0.553, -5.400e-4
0.552, -5.490e-4
0.551, -5.539e-4
0.550, -5.597e-4
0.549, -5.687e-4
0.548, -5.777e-4
0.547, -5.844e-4
0.546, -5.922e-4
0.545, -5.966e-4
0.544, -5.964e-4
0.543, -5.972e-4
0.542, -6.030e-4
0.541, -6.101e-4
0.540, -6.149e-4
0.539, -6.188e-4
0.538, -6.206e-4
0.537, -6.202e-4
0.536, -6.235e-4
0.535, -6.285e-4
0.534, -6.314e-4
0.533, -6.343e-4
0.532, -6.381e-4
0.531, -6.381e-4
0.530, -6.372e-4
0.529, -6.385e-4
0.528, -6.424e-4
0.527, -6.436e-4
0.526, -6.447e-4
0.525, -6.488e-4
0.524, -6.487e-4
0.523, -6.471e-4
0.522, -6.494e-4
0.521, -6.530e-4
0.520, -6.547e-4
0.519, -6.560e-4
0.518, -6.564e-4
0.517, -6.540e-4
0.516, -6.536e-4
0.515, -6.561e-4
0.514, -6.583e-4
0.513, -6.586e-4
0.512, -6.616e-4
0.511, -6.654e-4
0.510, -6.643e-4
0.509, -6.622e-4
0.508, -6.619e-4
0.507, -6.631e-4
0.506, -6.642e-4
0.505, -6.670e-4
0.504, -6.686e-4
0.503, -6.652e-4
0.502, -6.618e-4
0.501, -6.639e-4
0.500, -6.667e-4
0.499, -6.691e-4
0.498, -6.722e-4
0.497, -6.702e-4
0.496, -6.671e-4
0.495, -6.679e-4
0.494, -6.700e-4
0.493, -6.712e-4
0.492, -6.732e-4
0.491, -6.755e-4
0.490, -6.731e-4
0.489, -6.685e-4
0.488, -6.689e-4
0.487, -6.733e-4
0.486, -6.748e-4
0.485, -6.760e-4
0.484, -6.767e-4
0.483, -6.739e-4
0.482, -6.713e-4
0.481, -6.705e-4
0.480, -6.738e-4
0.479, -6.776e-4
0.478, -6.798e-4
0.477, -6.808e-4
0.476, -6.782e-4
0.475, -6.758e-4
0.474, -6.755e-4
0.473, -6.754e-4
0.472, -6.754e-4
0.471, -6.811e-4
0.470, -6.204e-4
0.471, -3.604e-4
0.472, -1.523e-4
0.473, -6.241e-6
0.474, 9.890e-5
0.475, 1.789e-4
0.476, 2.422e-4
0.477, 2.941e-4
0.478, 3.385e-4
0.479, 3.762e-4
0.480, 4.053e-4
0.481, 4.271e-4
0.482, 4.455e-4
0.483, 4.646e-4
0.484, 4.823e-4
0.485, 4.963e-4
0.486, 5.127e-4
0.487, 5.246e-4
0.488, 5.311e-4
0.489, 5.376e-4
0.490, 5.472e-4
0.491, 5.576e-4
0.492, 5.656e-4
0.493, 5.726e-4
0.494, 5.768e-4
0.495, 5.789e-4
0.496, 5.837e-4
0.497, 5.918e-4
0.498, 5.968e-4
0.499, 6.029e-4
0.500, 6.085e-4
0.501, 6.087e-4
0.502, 6.080e-4
0.503, 6.133e-4
0.504, 6.210e-4
0.505, 6.250e-4
0.506, 6.276e-4
0.507, 6.313e-4
0.508, 6.320e-4
0.509, 6.326e-4
0.510, 6.355e-4
0.511, 6.380e-4
0.512, 6.401e-4
0.513, 6.446e-4
0.514, 6.481e-4
0.515, 6.497e-4
0.516, 6.489e-4
0.517, 6.496e-4
0.518, 6.514e-4
0.519, 6.534e-4
0.520, 6.594e-4
0.521, 6.632e-4
0.522, 6.617e-4
0.523, 6.598e-4
0.524, 6.604e-4
0.525, 6.621e-4
0.526, 6.662e-4
0.527, 6.708e-4
0.528, 6.714e-4
0.529, 6.700e-4
0.530, 6.674e-4
0.531, 6.713e-4
0.532, 6.744e-4
0.533, 6.761e-4
0.534, 6.811e-4
0.535, 6.795e-4
0.536, 6.765e-4
0.537, 6.773e-4
0.538, 6.800e-4
0.539, 6.824e-4
0.540, 6.868e-4
0.541, 6.891e-4
0.542, 6.861e-4
0.543, 6.820e-4
0.544, 6.848e-4
0.545, 6.895e-4
0.546, 6.907e-4
0.547, 6.928e-4
0.548, 6.933e-4
0.549, 6.897e-4
0.550, 6.880e-4
0.551, 6.896e-4
0.552, 6.926e-4
0.553, 6.954e-4
0.554, 6.969e-4
0.555, 6.965e-4
0.556, 6.939e-4
0.557, 6.954e-4
0.558, 6.992e-4
0.559, 6.996e-4
0.560, 7.004e-4
0.561, 7.040e-4
0.562, 7.037e-4
0.563, 7.028e-4
0.564, 7.017e-4
0.565, 7.029e-4
0.566, 7.040e-4
0.567, 7.044e-4
0.568, 7.075e-4
0.569, 7.077e-4
0.570, 6.430e-4
0.569, 3.813e-4
0.568, 1.689e-4
0.567, 1.830e-5
0.566, -9.300e-5
0.565, -1.812e-4
0.564, -2.525e-4
0.563, -3.100e-4
0.562, -3.565e-4
0.561, -3.911e-4
0.560, -4.180e-4
0.559, -4.416e-4
0.558, -4.663e-4
0.557, -4.888e-4
0.556, -5.068e-4
0.555, -5.219e-4
0.554, -5.317e-4
0.553, -5.380e-4
0.552, -5.457e-4
0.551, -5.557e-4
0.550, -5.668e-4
0.549, -5.775e-4
0.548, -5.849e-4
0.547, -5.866e-4
0.546, -5.882e-4
0.545, -5.944e-4
0.544, -6.018e-4
0.543, -6.074e-4
0.542, -6.114e-4
0.541, -6.146e-4
0.540, -6.144e-4
0.539, -6.164e-4
0.538, -6.206e-4
0.537, -6.252e-4
0.536, -6.292e-4
0.535, -6.331e-4
0.534, -6.338e-4
0.533, -6.327e-4
0.532, -6.346e-4
0.531, -6.382e-4
0.530, -6.407e-4
0.529, -6.421e-4
0.528, -6.464e-4
0.527, -6.473e-4
0.526, -6.432e-4
0.525, -6.411e-4
0.524, -6.453e-4
0.523, -6.488e-4
0.522, -6.530e-4
0.521, -6.564e-4
0.520, -6.552e-4
0.519, -6.518e-4
0.518, -6.504e-4
0.517, -6.547e-4
0.516, -6.584e-4
0.515, -6.616e-4
0.514, -6.626e-4
0.513, -6.603e-4
0.512, -6.590e-4
0.511, -6.594e-4
0.510, -6.615e-4
0.509, -6.631e-4
0.508, -6.645e-4
0.507, -6.662e-4
0.506, -6.636e-4
0.505, -6.614e-4
0.504, -6.625e-4
0.503, -6.651e-4
0.502, -6.665e-4
0.501, -6.705e-4
0.500, -6.712e-4
0.499, -6.667e-4
0.498, -6.660e-4
0.497, -6.683e-4
0.496, -6.708e-4
0.495, -6.729e-4
0.494, -6.747e-4
0.493, -6.730e-4
0.492, -6.702e-4
0.491, -6.688e-4
0.490, -6.713e-4
0.489, -6.728e-4
0.488, -6.745e-4
0.487, -6.775e-4
0.486, -6.765e-4
0.485, -6.733e-4
0.484, -6.710e-4
0.483, -6.723e-4
0.482, -6.739e-4
0.481, -6.763e-4
0.480, -6.795e-4
0.479, -6.776e-4
0.478, -6.739e-4
0.477, -6.738e-4
0.476, -6.759e-4
0.475, -6.755e-4
0.474, -6.780e-4
0.473, -6.813e-4
0.472, -6.784e-4
0.471, -6.757e-4
0.470, -6.135e-4
0.471, -3.599e-4
0.472, -1.567e-4
0.473, -1.394e-5
0.474, 9.504e-5
0.475, 1.803e-4
0.476, 2.463e-4
0.477, 2.989e-4
0.478, 3.395e-4
0.479, 3.710e-4
0.480, 3.993e-4
0.481, 4.262e-4
0.482, 4.484e-4
0.483, 4.691e-4
0.484, 4.851e-4
0.485, 4.957e-4
0.486, 5.071e-4
0.487, 5.191e-4
0.488, 5.308e-4
0.489, 5.420e-4
0.490, 5.520e-4
0.491, 5.586e-4
0.492, 5.626e-4
0.493, 5.677e-4
0.494, 5.751e-4
0.495, 5.820e-4
0.496, 5.885e-4
0.497, 5.955e-4
0.498, 5.968e-4
0.499, 5.984e-4
0.500, 6.035e-4
0.501, 6.084e-4
0.502, 6.135e-4
0.503, 6.178e-4
0.504, 6.221e-4
0.505, 6.223e-4
0.506, 6.231e-4
0.507, 6.268e-4
0.508, 6.308e-4
0.509, 6.329e-4
0.510, 6.389e-4
0.511, 6.425e-4
0.512, 6.426e-4
0.513, 6.414e-4
0.514, 6.434e-4
0.515, 6.471e-4
0.516, 6.492e-4
0.517, 6.541e-4
0.518, 6.584e-4
0.519, 6.569e-4
0.520, 6.544e-4
0.521, 6.560e-4
0.522, 6.585e-4
0.523, 6.623e-4
0.524, 6.671e-4
0.525, 6.672e-4
0.526, 6.653e-4
0.527, 6.651e-4
0.528, 6.670e-4
0.529, 6.690e-4
0.530, 6.730e-4
0.531, 6.782e-4
0.532, 6.767e-4
0.533, 6.731e-4
0.534, 6.744e-4
0.535, 6.767e-4
0.536, 6.782e-4
0.537, 6.814e-4
0.538, 6.842e-4
0.539, 6.837e-4
0.540, 6.817e-4
0.541, 6.804e-4
0.542, 6.817e-4
0.543, 6.817e-4
0.544, 6.848e-4
0.545, 6.893e-4
0.546, 6.882e-4
0.547, 6.878e-4
0.548, 6.885e-4
0.549, 6.894e-4
0.550, 6.893e-4
0.551, 6.918e-4
0.552, 6.946e-4
0.553, 6.939e-4
0.554, 6.927e-4
0.555, 6.943e-4
0.556, 6.959e-4
0.557, 6.966e-4
0.558, 7.006e-4
0.559, 7.010e-4
0.560, 6.973e-4
0.561, 6.962e-4
0.562, 6.989e-4
0.563, 7.024e-4
0.564, 7.043e-4
0.565, 7.063e-4
0.566, 7.073e-4
0.567, 7.033e-4
0.568, 7.002e-4
0.569, 7.019e-4
0.570, 6.410e-4
0.569, 3.818e-4
0.568, 1.720e-4
0.567, 1.895e-5
0.566, -9.709e-5
0.565, -1.875e-4
0.564, -2.571e-4
0.563, -3.097e-4
0.562, -3.518e-4
0.561, -3.890e-4
0.560, -4.222e-4
0.559, -4.491e-4
0.558, -4.731e-4
0.557, -4.918e-4
0.556, -5.039e-4
0.555, -5.158e-4
0.554, -5.307e-4
0.553, -5.426e-4
0.552, -5.528e-4
0.551, -5.634e-4
0.550, -5.691e-4
0.549, -5.718e-4
0.548, -5.780e-4
0.547, -5.888e-4
0.546, -5.967e-4
0.545, -6.011e-4
0.544, -6.077e-4
0.543, -6.096e-4
0.542, -6.078e-4
0.541, -6.103e-4
0.540, -6.151e-4
0.539, -6.190e-4
0.538, -6.256e-4
0.537, -6.299e-4
0.536, -6.276e-4
0.535, -6.266e-4
0.534, -6.318e-4
0.533, -6.374e-4
0.532, -6.383e-4
0.531, -6.414e-4
0.530, -6.449e-4
0.529, -6.422e-4
0.528, -6.406e-4
0.527, -6.444e-4
0.526, -6.477e-4
0.525, -6.494e-4
0.524, -6.527e-4
0.523, -6.539e-4
0.522, -6.507e-4
0.521, -6.490e-4
0.520, -6.515e-4
0.519, -6.542e-4
0.518, -6.567e-4
0.517, -6.614e-4
0.516, -6.602e-4
0.515, -6.546e-4
0.514, -6.538e-4
0.513, -6.586e-4
0.512, -6.616e-4
0.511, -6.626e-4
0.510, -6.661e-4
0.509, -6.661e-4
0.508, -6.624e-4
0.507, -6.605e-4
0.506, -6.629e-4
0.505, -6.636e-4
0.504, -6.655e-4
0.503, -6.689e-4
0.502, -6.674e-4
0.501, -6.668e-4
0.500, -6.672e-4
0.499, -6.690e-4
0.498, -6.715e-4
0.497, -6.721e-4
0.496, -6.719e-4
0.495, -6.691e-4
0.494, -6.672e-4
0.493, -6.692e-4
0.492, -6.711e-4
0.491, -6.718e-4
0.490, -6.738e-4
0.489, -6.725e-4
0.488, -6.703e-4
0.487, -6.694e-4
0.486, -6.708e-4
0.485, -6.736e-4
0.484, -6.769e-4
0.483, -6.783e-4
0.482, -6.744e-4
0.481, -6.706e-4
0.480, -6.721e-4
0.479, -6.759e-4
0.478, -6.768e-4
0.477, -6.783e-4
0.476, -6.791e-4
0.475, -6.752e-4
0.474, -6.710e-4
0.473, -6.730e-4
0.472, -6.784e-4
0.471, -6.798e-4
0.470, -6.186e-4
0.471, -3.640e-4
0.472, -1.555e-4
0.473, -7.133e-6
0.474, 1.020e-4
0.475, 1.821e-4
0.476, 2.429e-4
0.477, 2.934e-4
0.478, 3.376e-4
0.479, 3.736e-4
0.480, 4.044e-4
0.481, 4.314e-4
0.482, 4.498e-4
0.483, 4.643e-4
0.484, 4.815e-4
0.485, 4.991e-4
0.486, 5.129e-4
0.487, 5.239e-4
0.488, 5.327e-4
0.489, 5.396e-4
0.490, 5.462e-4
0.491, 5.556e-4
0.492, 5.660e-4
0.493, 5.728e-4
0.494, 5.792e-4
0.495, 5.856e-4
0.496, 5.885e-4
0.497, 5.901e-4
0.498, 5.945e-4
0.499, 6.004e-4
0.500, 6.060e-4
0.501, 6.124e-4
0.502, 6.158e-4
0.503, 6.155e-4
0.504, 6.166e-4
0.505, 6.220e-4
0.506, 6.271e-4
0.507, 6.300e-4
0.508, 6.352e-4
0.509, 6.373e-4
0.510, 6.369e-4
0.511, 6.376e-4
0.512, 6.421e-4
0.513, 6.452e-4
0.514, 6.463e-4
0.515, 6.506e-4
0.516, 6.513e-4
0.517, 6.499e-4
0.518, 6.514e-4
0.519, 6.539e-4
0.520, 6.553e-4
0.521, 6.600e-4
0.522, 6.638e-4
0.523, 6.630e-4
0.524, 6.616e-4
0.525, 6.627e-4
0.526, 6.651e-4
0.527, 6.664e-4
0.528, 6.695e-4
0.529, 6.713e-4
0.530, 6.686e-4
0.531, 6.692e-4
0.532, 6.736e-4
0.533, 6.751e-4
0.534, 6.761e-4
0.535, 6.792e-4
0.536, 6.789e-4
0.537, 6.751e-4
0.538, 6.755e-4
0.539, 6.809e-4
0.540, 6.834e-4
0.541, 6.841e-4
0.542, 6.867e-4
0.543, 6.840e-4
0.544, 6.799e-4
0.545, 6.833e-4
0.546, 6.873e-4
0.547, 6.886e-4
0.548, 6.916e-4
0.549, 6.937e-4
0.550, 6.914e-4
0.551, 6.879e-4
0.552, 6.902e-4
0.553, 6.935e-4
0.554, 6.942e-4
0.555, 6.974e-4
0.556, 6.982e-4
0.557, 6.939e-4
0.558, 6.910e-4
0.559, 6.934e-4
0.560, 6.981e-4
0.561, 7.001e-4
0.562, 7.022e-4
0.563, 7.019e-4
0.564, 6.980e-4
0.565, 6.978e-4
0.566, 7.023e-4
0.567, 7.054e-4
0.568, 7.059e-4
0.569, 7.073e-4
0.570, 6.423e-4
0.569, 3.784e-4
0.568, 1.660e-4
0.567, 1.396e-5
0.566, -9.786e-5
0.565, -1.838e-4
0.564, -2.521e-4
0.563, -3.095e-4
0.562, -3.569e-4
0.561, -3.953e-4
0.560, -4.259e-4
0.559, -4.499e-4
0.558, -4.682e-4
0.557, -4.872e-4
0.556, -5.050e-4
0.555, -5.205e-4
0.554, -5.356e-4
0.553, -5.442e-4
0.552, -5.503e-4
0.551, -5.574e-4
0.550, -5.672e-4
0.549, -5.755e-4
0.548, -5.825e-4
0.547, -5.904e-4
0.546, -5.944e-4
0.545, -5.956e-4
0.544, -5.999e-4
0.543, -6.070e-4
0.542, -6.122e-4
0.541, -6.159e-4
0.540, -6.191e-4
0.539, -6.187e-4
0.538, -6.188e-4
0.537, -6.233e-4
0.536, -6.287e-4
0.535, -6.318e-4
0.534, -6.352e-4
0.533, -6.395e-4
0.532, -6.382e-4
0.531, -6.358e-4
0.530, -6.391e-4
0.529, -6.429e-4
0.528, -6.452e-4
0.527, -6.479e-4
0.526, -6.492e-4
0.525, -6.473e-4
0.524, -6.462e-4
0.523, -6.488e-4
0.522, -6.521e-4
0.521, -6.528e-4
0.520, -6.554e-4
0.519, -6.563e-4
0.518, -6.541e-4
0.517, -6.539e-4
0.516, -6.562e-4
0.515, -6.591e-4
0.514, -6.620e-4
0.513, -6.633e-4
0.512, -6.620e-4
0.511, -6.590e-4
0.510, -6.584e-4
0.509, -6.613e-4
0.508, -6.625e-4
0.507, -6.650e-4
0.506, -6.672e-4
0.505, -6.654e-4
0.504, -6.637e-4
0.503, -6.636e-4
0.502, -6.644e-4
0.501, -6.666e-4
0.500, -6.689e-4
0.499, -6.703e-4
0.498, -6.683e-4
0.497, -6.657e-4
0.496, -6.661e-4
0.495, -6.676e-4
0.494, -6.680e-4
0.493, -6.723e-4
0.492, -6.726e-4
0.491, -6.699e-4
0.490, -6.695e-4
0.489, -6.696e-4
0.488, -6.709e-4
0.487, -6.726e-4
0.486, -6.761e-4
0.485, -6.747e-4
0.484, -6.696e-4
0.483, -6.692e-4
0.482, -6.741e-4
0.481, -6.751e-4
0.480, -6.748e-4
0.479, -6.764e-4
0.478, -6.752e-4
0.477, -6.734e-4
0.476, -6.731e-4
0.475, -6.752e-4
0.474, -6.782e-4
0.473, -6.806e-4
0.472, -6.825e-4
0.471, -6.795e-4
0.470, -6.124e-4
0.471, -3.566e-4
0.472, -1.528e-4
0.473, -8.975e-6
0.474, 9.647e-5
0.475, 1.795e-4
0.476, 2.464e-4
0.477, 2.995e-4
0.478, 3.424e-4
0.479, 3.741e-4
0.480, 4.015e-4
0.481, 4.265e-4
0.482, 4.488e-4
0.483, 4.688e-4
0.484, 4.863e-4
0.485, 5.012e-4
0.486, 5.123e-4
0.487, 5.211e-4
0.488, 5.297e-4
0.489, 5.405e-4
0.490, 5.495e-4
0.491, 5.592e-4
0.492, 5.674e-4
0.493, 5.716e-4
0.494, 5.763e-4
0.495, 5.810e-4
0.496, 5.878e-4
0.497, 5.935e-4
0.498, 6.001e-4
0.499, 6.043e-4
0.500, 6.053e-4
0.501, 6.072e-4
0.502, 6.123e-4
0.503, 6.161e-4
0.504, 6.195e-4
0.505, 6.253e-4
0.506, 6.273e-4
0.507, 6.272e-4
0.508, 6.285e-4
0.509, 6.322e-4
0.510, 6.360e-4
0.511, 6.371e-4
0.512, 6.415e-4
0.513, 6.452e-4
0.514, 6.453e-4
0.515, 6.452e-4
0.516, 6.481e-4
0.517, 6.499e-4
0.518, 6.515e-4
0.519, 6.566e-4
0.520, 6.574e-4
0.521, 6.571e-4
0.522, 6.584e-4
0.523, 6.613e-4
0.524, 6.628e-4
0.525, 6.653e-4
0.526, 6.682e-4
0.527, 6.679e-4
0.528, 6.680e-4
0.529, 6.684e-4
0.530, 6.677e-4
0.531, 6.681e-4
0.532, 6.744e-4
0.533, 6.774e-4
0.534, 6.758e-4
0.535, 6.762e-4
0.536, 6.772e-4
0.537, 6.783e-4
0.538, 6.788e-4
0.539, 6.833e-4
0.540, 6.840e-4
0.541, 6.809e-4
0.542, 6.808e-4
0.543, 6.825e-4
0.544, 6.848e-4
0.545, 6.871e-4
0.546, 6.902e-4
0.547, 6.895e-4
0.548, 6.857e-4
0.549, 6.843e-4
0.550, 6.872e-4
0.551, 6.902e-4
0.552, 6.933e-4
0.553, 6.965e-4
0.554, 6.939e-4
0.555, 6.900e-4
0.556, 6.895e-4
0.557, 6.936e-4
0.558, 6.953e-4
0.559, 6.981e-4
0.560, 6.991e-4
0.561, 6.966e-4
0.562, 6.950e-4
0.563, 6.970e-4
0.564, 6.994e-4
0.565, 6.992e-4
0.566, 7.041e-4
0.567, 7.056e-4
0.568, 7.016e-4
0.569, 7.011e-4
0.570, 6.403e-4
0.569, 3.799e-4
0.568, 1.684e-4
0.567, 1.757e-5
0.566, -9.756e-5
0.565, -1.878e-4
0.564, -2.585e-4
0.563, -3.145e-4
0.562, -3.572e-4
0.561, -3.901e-4
0.560, -4.198e-4
0.559, -4.464e-4
0.558, -4.699e-4
0.557, -4.927e-4
0.556, -5.087e-4
0.555, -5.190e-4
0.554, -5.296e-4
0.553, -5.406e-4
0.552, -5.510e-4
0.551, -5.622e-4
0.550, -5.731e-4
0.549, -5.790e-4
0.548, -5.808e-4
0.547, -5.843e-4
0.546, -5.911e-4
0.545, -5.968e-4
0.544, -6.030e-4
0.543, -6.108e-4
0.542, -6.128e-4
0.541, -6.123e-4
0.540, -6.154e-4
0.539, -6.200e-4
0.538, -6.233e-4
0.537, -6.269e-4
0.536, -6.310e-4
0.535, -6.311e-4
0.534, -6.299e-4
0.533, -6.315e-4
0.532, -6.344e-4
0.531, -6.360e-4
0.530, -6.422e-4
0.529, -6.465e-4
0.528, -6.439e-4
0.527, -6.417e-4
0.526, -6.427e-4
0.525, -6.466e-4
0.524, -6.487e-4
0.523, -6.517e-4
0.522, -6.539e-4
0.521, -6.510e-4
0.520, -6.487e-4
0.519, -6.514e-4
0.518, -6.548e-4
0.517, -6.569e-4
0.516, -6.592e-4
0.515, -6.587e-4
0.514, -6.551e-4
0.513, -6.535e-4
0.512, -6.573e-4
0.511, -6.617e-4
0.510, -6.642e-4
0.509, -6.674e-4
0.508, -6.653e-4
0.507, -6.607e-4
0.506, -6.600e-4
0.505, -6.622e-4
0.504, -6.641e-4
0.503, -6.671e-4
0.502, -6.697e-4
0.501, -6.672e-4
0.500, -6.632e-4
0.499, -6.640e-4
0.498, -6.672e-4
0.497, -6.673e-4
0.496, -6.688e-4
0.495, -6.713e-4
0.494, -6.683e-4
0.493, -6.657e-4
0.492, -6.667e-4
0.491, -6.690e-4
0.490, -6.698e-4
0.489, -6.708e-4
0.488, -6.743e-4
0.487, -6.725e-4
0.486, -6.696e-4
0.485, -6.733e-4
0.484, -6.760e-4
0.483, -6.769e-4
0.482, -6.782e-4
0.481, -6.755e-4
0.480, -6.688e-4
0.479, -6.661e-4
0.478, -6.711e-4
0.477, -6.766e-4
0.476, -6.777e-4
0.475, -6.788e-4
0.474, -6.809e-4
0.473, -6.782e-4
0.472, -6.763e-4
0.471, -6.783e-4
