Nov. 23, 2024   17:49:57
Cyclic Voltammetry
File: e:\2023data\yx\20241123\6-1\cv-60.bin
Data Source:  Experiment
Instrument Model:  CHI660E
Header: 
Note: 

Init E (V) = 0.47
High E (V) = 0.57
Low E (V) = 0.47
Init P/N = P
Scan Rate (V/s) = 0.06
Segment = 10
Sample Interval (V) = 0.001
Quiet Time (sec) = 2
Sensitivity (A/V) = 0.001

Results:

Channel 1:
Segment 1:

Segment 2:

Segment 3:

Segment 4:

Segment 5:

Segment 6:

Segment 7:

Segment 8:

Segment 9:

Segment 10:

Potential/V, Current/A

0.470, 5.319e-5
0.471, 2.038e-4
0.472, 3.202e-4
0.473, 4.120e-4
0.474, 4.854e-4
0.475, 5.463e-4
0.476, 5.966e-4
0.477, 6.350e-4
0.478, 6.676e-4
0.479, 6.953e-4
0.480, 7.199e-4
0.481, 7.442e-4
0.482, 7.649e-4
0.483, 7.819e-4
0.484, 7.988e-4
0.485, 8.147e-4
0.486, 8.303e-4
0.487, 8.421e-4
0.488, 8.491e-4
0.489, 8.556e-4
0.490, 8.628e-4
0.491, 8.713e-4
0.492, 8.813e-4
0.493, 8.887e-4
0.494, 8.933e-4
0.495, 9.005e-4
0.496, 9.090e-4
0.497, 9.162e-4
0.498, 9.190e-4
0.499, 9.201e-4
0.500, 9.215e-4
0.501, 9.259e-4
0.502, 9.325e-4
0.503, 9.386e-4
0.504, 9.432e-4
0.505, 9.486e-4
0.506, 9.554e-4
0.507, 9.593e-4
0.508, 9.608e-4
0.509, 9.601e-4
0.510, 9.592e-4
0.511, 9.610e-4
0.512, 9.666e-4
0.513, 9.720e-4
0.514, 9.750e-4
0.515, 9.774e-4
0.516, 9.809e-4
0.517, 9.851e-4
0.518, 9.864e-4
0.519, 9.864e-4
0.520, 9.858e-4
0.521, 9.888e-4
0.522, 9.923e-4
0.523, 9.942e-4
0.524, 9.961e-4
0.525, 9.981e-4
0.526, 1.002e-3
0.527, 1.006e-3
0.528, 1.006e-3
0.529, 1.003e-3
0.530, 9.997e-4
0.531, 1.003e-3
0.532, 1.009e-3
0.533, 1.013e-3
0.534, 1.014e-3
0.535, 1.014e-3
0.536, 1.014e-3
0.537, 1.018e-3
0.538, 1.020e-3
0.539, 1.020e-3
0.540, 1.020e-3
0.541, 1.020e-3
0.542, 1.023e-3
0.543, 1.026e-3
0.544, 1.027e-3
0.545, 1.027e-3
0.546, 1.028e-3
0.547, 1.032e-3
0.548, 1.035e-3
0.549, 1.034e-3
0.550, 1.032e-3
0.551, 1.030e-3
0.552, 1.030e-3
0.553, 1.034e-3
0.554, 1.034e-3
0.555, 1.036e-3
0.556, 1.041e-3
0.557, 1.047e-3
0.558, 1.051e-3
0.559, 1.052e-3
0.560, 1.050e-3
0.561, 1.049e-3
0.562, 1.047e-3
0.563, 1.048e-3
0.564, 1.050e-3
0.565, 1.049e-3
0.566, 1.051e-3
0.567, 1.054e-3
0.568, 1.056e-3
0.569, 1.057e-3
0.570, 9.327e-4
0.569, 6.232e-4
0.568, 3.827e-4
0.567, 1.947e-4
0.566, 4.527e-5
0.565, -7.645e-5
0.564, -1.767e-4
0.563, -2.629e-4
0.562, -3.378e-4
0.561, -4.031e-4
0.560, -4.594e-4
0.559, -5.073e-4
0.558, -5.484e-4
0.557, -5.870e-4
0.556, -6.204e-4
0.555, -6.460e-4
0.554, -6.682e-4
0.553, -6.875e-4
0.552, -7.078e-4
0.551, -7.297e-4
0.550, -7.488e-4
0.549, -7.650e-4
0.548, -7.795e-4
0.547, -7.918e-4
0.546, -8.037e-4
0.545, -8.109e-4
0.544, -8.169e-4
0.543, -8.250e-4
0.542, -8.341e-4
0.541, -8.439e-4
0.540, -8.523e-4
0.539, -8.572e-4
0.538, -8.652e-4
0.537, -8.754e-4
0.536, -8.837e-4
0.535, -8.875e-4
0.534, -8.888e-4
0.533, -8.911e-4
0.532, -8.952e-4
0.531, -9.012e-4
0.530, -9.078e-4
0.529, -9.110e-4
0.528, -9.146e-4
0.527, -9.195e-4
0.526, -9.227e-4
0.525, -9.230e-4
0.524, -9.221e-4
0.523, -9.219e-4
0.522, -9.259e-4
0.521, -9.319e-4
0.520, -9.360e-4
0.519, -9.400e-4
0.518, -9.437e-4
0.517, -9.484e-4
0.516, -9.529e-4
0.515, -9.523e-4
0.514, -9.507e-4
0.513, -9.497e-4
0.512, -9.491e-4
0.511, -9.505e-4
0.510, -9.532e-4
0.509, -9.567e-4
0.508, -9.606e-4
0.507, -9.641e-4
0.506, -9.684e-4
0.505, -9.675e-4
0.504, -9.633e-4
0.503, -9.611e-4
0.502, -9.611e-4
0.501, -9.646e-4
0.500, -9.668e-4
0.499, -9.674e-4
0.498, -9.692e-4
0.497, -9.720e-4
0.496, -9.767e-4
0.495, -9.777e-4
0.494, -9.741e-4
0.493, -9.723e-4
0.492, -9.735e-4
0.491, -9.756e-4
0.490, -9.797e-4
0.489, -9.827e-4
0.488, -9.846e-4
0.487, -9.853e-4
0.486, -9.854e-4
0.485, -9.836e-4
0.484, -9.806e-4
0.483, -9.811e-4
0.482, -9.832e-4
0.481, -9.828e-4
0.480, -9.824e-4
0.479, -9.848e-4
0.478, -9.888e-4
0.477, -9.914e-4
0.476, -9.935e-4
0.475, -9.932e-4
0.474, -9.923e-4
0.473, -9.887e-4
0.472, -9.859e-4
0.471, -9.878e-4
0.470, -8.686e-4
0.471, -5.671e-4
0.472, -3.360e-4
0.473, -1.563e-4
0.474, -1.407e-5
0.475, 1.015e-4
0.476, 1.989e-4
0.477, 2.804e-4
0.478, 3.497e-4
0.479, 4.103e-4
0.480, 4.622e-4
0.481, 5.054e-4
0.482, 5.414e-4
0.483, 5.731e-4
0.484, 6.025e-4
0.485, 6.294e-4
0.486, 6.541e-4
0.487, 6.770e-4
0.488, 6.968e-4
0.489, 7.174e-4
0.490, 7.364e-4
0.491, 7.511e-4
0.492, 7.632e-4
0.493, 7.727e-4
0.494, 7.824e-4
0.495, 7.946e-4
0.496, 8.064e-4
0.497, 8.178e-4
0.498, 8.258e-4
0.499, 8.347e-4
0.500, 8.440e-4
0.501, 8.509e-4
0.502, 8.573e-4
0.503, 8.629e-4
0.504, 8.674e-4
0.505, 8.743e-4
0.506, 8.813e-4
0.507, 8.880e-4
0.508, 8.943e-4
0.509, 8.993e-4
0.510, 9.055e-4
0.511, 9.094e-4
0.512, 9.105e-4
0.513, 9.122e-4
0.514, 9.150e-4
0.515, 9.199e-4
0.516, 9.273e-4
0.517, 9.334e-4
0.518, 9.373e-4
0.519, 9.410e-4
0.520, 9.447e-4
0.521, 9.497e-4
0.522, 9.502e-4
0.523, 9.488e-4
0.524, 9.495e-4
0.525, 9.539e-4
0.526, 9.583e-4
0.527, 9.625e-4
0.528, 9.649e-4
0.529, 9.680e-4
0.530, 9.720e-4
0.531, 9.762e-4
0.532, 9.781e-4
0.533, 9.777e-4
0.534, 9.770e-4
0.535, 9.766e-4
0.536, 9.785e-4
0.537, 9.837e-4
0.538, 9.879e-4
0.539, 9.901e-4
0.540, 9.924e-4
0.541, 9.956e-4
0.542, 9.968e-4
0.543, 9.968e-4
0.544, 9.984e-4
0.545, 9.999e-4
0.546, 1.002e-3
0.547, 1.005e-3
0.548, 1.007e-3
0.549, 1.008e-3
0.550, 1.011e-3
0.551, 1.016e-3
0.552, 1.015e-3
0.553, 1.013e-3
0.554, 1.010e-3
0.555, 1.011e-3
0.556, 1.014e-3
0.557, 1.019e-3
0.558, 1.022e-3
0.559, 1.024e-3
0.560, 1.025e-3
0.561, 1.028e-3
0.562, 1.030e-3
0.563, 1.031e-3
0.564, 1.030e-3
0.565, 1.028e-3
0.566, 1.030e-3
0.567, 1.032e-3
0.568, 1.033e-3
0.569, 1.036e-3
0.570, 9.148e-4
0.569, 6.096e-4
0.568, 3.709e-4
0.567, 1.816e-4
0.566, 3.017e-5
0.565, -9.516e-5
0.564, -1.997e-4
0.563, -2.871e-4
0.562, -3.596e-4
0.561, -4.197e-4
0.560, -4.718e-4
0.559, -5.173e-4
0.558, -5.572e-4
0.557, -5.945e-4
0.556, -6.273e-4
0.555, -6.556e-4
0.554, -6.820e-4
0.553, -7.060e-4
0.552, -7.268e-4
0.551, -7.433e-4
0.550, -7.575e-4
0.549, -7.702e-4
0.548, -7.831e-4
0.547, -7.988e-4
0.546, -8.130e-4
0.545, -8.245e-4
0.544, -8.344e-4
0.543, -8.441e-4
0.542, -8.511e-4
0.541, -8.563e-4
0.540, -8.592e-4
0.539, -8.632e-4
0.538, -8.719e-4
0.537, -8.805e-4
0.536, -8.868e-4
0.535, -8.918e-4
0.534, -8.966e-4
0.533, -9.033e-4
0.532, -9.106e-4
0.531, -9.142e-4
0.530, -9.139e-4
0.529, -9.131e-4
0.528, -9.146e-4
0.527, -9.194e-4
0.526, -9.250e-4
0.525, -9.298e-4
0.524, -9.337e-4
0.523, -9.377e-4
0.522, -9.427e-4
0.521, -9.443e-4
0.520, -9.421e-4
0.519, -9.410e-4
0.518, -9.412e-4
0.517, -9.424e-4
0.516, -9.458e-4
0.515, -9.485e-4
0.514, -9.529e-4
0.513, -9.586e-4
0.512, -9.633e-4
0.511, -9.631e-4
0.510, -9.584e-4
0.509, -9.555e-4
0.508, -9.566e-4
0.507, -9.600e-4
0.506, -9.650e-4
0.505, -9.668e-4
0.504, -9.655e-4
0.503, -9.664e-4
0.502, -9.690e-4
0.501, -9.721e-4
0.500, -9.726e-4
0.499, -9.723e-4
0.498, -9.734e-4
0.497, -9.741e-4
0.496, -9.751e-4
0.495, -9.774e-4
0.494, -9.768e-4
0.493, -9.779e-4
0.492, -9.798e-4
0.491, -9.815e-4
0.490, -9.814e-4
0.489, -9.796e-4
0.488, -9.793e-4
0.487, -9.808e-4
0.486, -9.823e-4
0.485, -9.849e-4
0.484, -9.869e-4
0.483, -9.872e-4
0.482, -9.892e-4
0.481, -9.918e-4
0.480, -9.928e-4
0.479, -9.910e-4
0.478, -9.881e-4
0.477, -9.860e-4
0.476, -9.859e-4
0.475, -9.869e-4
0.474, -9.888e-4
0.473, -9.917e-4
0.472, -9.946e-4
0.471, -9.992e-4
0.470, -8.759e-4
0.471, -5.681e-4
0.472, -3.354e-4
0.473, -1.545e-4
0.474, -1.034e-5
0.475, 1.052e-4
0.476, 2.006e-4
0.477, 2.799e-4
0.478, 3.464e-4
0.479, 4.049e-4
0.480, 4.558e-4
0.481, 5.013e-4
0.482, 5.403e-4
0.483, 5.761e-4
0.484, 6.094e-4
0.485, 6.363e-4
0.486, 6.586e-4
0.487, 6.779e-4
0.488, 6.952e-4
0.489, 7.140e-4
0.490, 7.311e-4
0.491, 7.454e-4
0.492, 7.596e-4
0.493, 7.728e-4
0.494, 7.874e-4
0.495, 7.997e-4
0.496, 8.080e-4
0.497, 8.154e-4
0.498, 8.222e-4
0.499, 8.305e-4
0.500, 8.408e-4
0.501, 8.490e-4
0.502, 8.574e-4
0.503, 8.647e-4
0.504, 8.704e-4
0.505, 8.777e-4
0.506, 8.816e-4
0.507, 8.843e-4
0.508, 8.899e-4
0.509, 8.942e-4
0.510, 9.016e-4
0.511, 9.083e-4
0.512, 9.126e-4
0.513, 9.166e-4
0.514, 9.220e-4
0.515, 9.244e-4
0.516, 9.256e-4
0.517, 9.268e-4
0.518, 9.294e-4
0.519, 9.349e-4
0.520, 9.406e-4
0.521, 9.446e-4
0.522, 9.451e-4
0.523, 9.453e-4
0.524, 9.504e-4
0.525, 9.589e-4
0.526, 9.652e-4
0.527, 9.664e-4
0.528, 9.648e-4
0.529, 9.657e-4
0.530, 9.691e-4
0.531, 9.726e-4
0.532, 9.752e-4
0.533, 9.735e-4
0.534, 9.753e-4
0.535, 9.819e-4
0.536, 9.852e-4
0.537, 9.871e-4
0.538, 9.873e-4
0.539, 9.859e-4
0.540, 9.871e-4
0.541, 9.883e-4
0.542, 9.909e-4
0.543, 9.916e-4
0.544, 9.923e-4
0.545, 9.992e-4
0.546, 1.005e-3
0.547, 1.007e-3
0.548, 1.007e-3
0.549, 1.004e-3
0.550, 1.004e-3
0.551, 1.007e-3
0.552, 1.008e-3
0.553, 1.010e-3
0.554, 1.010e-3
0.555, 1.014e-3
0.556, 1.018e-3
0.557, 1.019e-3
0.558, 1.018e-3
0.559, 1.017e-3
0.560, 1.017e-3
0.561, 1.021e-3
0.562, 1.025e-3
0.563, 1.026e-3
0.564, 1.025e-3
0.565, 1.029e-3
0.566, 1.036e-3
0.567, 1.038e-3
0.568, 1.037e-3
0.569, 1.036e-3
0.570, 9.109e-4
0.569, 6.039e-4
0.568, 3.677e-4
0.567, 1.807e-4
0.566, 3.180e-5
0.565, -9.080e-5
0.564, -1.935e-4
0.563, -2.831e-4
0.562, -3.583e-4
0.561, -4.215e-4
0.560, -4.752e-4
0.559, -5.234e-4
0.558, -5.642e-4
0.557, -5.991e-4
0.556, -6.288e-4
0.555, -6.538e-4
0.554, -6.803e-4
0.553, -7.060e-4
0.552, -7.275e-4
0.551, -7.454e-4
0.550, -7.614e-4
0.549, -7.790e-4
0.548, -7.941e-4
0.547, -8.045e-4
0.546, -8.129e-4
0.545, -8.202e-4
0.544, -8.284e-4
0.543, -8.394e-4
0.542, -8.501e-4
0.541, -8.580e-4
0.540, -8.642e-4
0.539, -8.694e-4
0.538, -8.777e-4
0.537, -8.829e-4
0.536, -8.859e-4
0.535, -8.895e-4
0.534, -8.920e-4
0.533, -8.977e-4
0.532, -9.040e-4
0.531, -9.083e-4
0.530, -9.135e-4
0.529, -9.182e-4
0.528, -9.221e-4
0.527, -9.246e-4
0.526, -9.240e-4
0.525, -9.254e-4
0.524, -9.271e-4
0.523, -9.309e-4
0.522, -9.353e-4
0.521, -9.372e-4
0.520, -9.375e-4
0.519, -9.417e-4
0.518, -9.467e-4
0.517, -9.504e-4
0.516, -9.508e-4
0.515, -9.496e-4
0.514, -9.498e-4
0.513, -9.526e-4
0.512, -9.563e-4
0.511, -9.594e-4
0.510, -9.609e-4
0.509, -9.643e-4
0.508, -9.683e-4
0.507, -9.694e-4
0.506, -9.687e-4
0.505, -9.661e-4
0.504, -9.635e-4
0.503, -9.659e-4
0.502, -9.693e-4
0.501, -9.706e-4
0.500, -9.713e-4
0.499, -9.734e-4
0.498, -9.775e-4
0.497, -9.804e-4
0.496, -9.778e-4
0.495, -9.754e-4
0.494, -9.748e-4
0.493, -9.758e-4
0.492, -9.765e-4
0.491, -9.767e-4
0.490, -9.779e-4
0.489, -9.808e-4
0.488, -9.841e-4
0.487, -9.873e-4
0.486, -9.870e-4
0.485, -9.841e-4
0.484, -9.824e-4
0.483, -9.822e-4
0.482, -9.844e-4
0.481, -9.859e-4
0.480, -9.867e-4
0.479, -9.872e-4
0.478, -9.877e-4
0.477, -9.922e-4
0.476, -9.929e-4
0.475, -9.898e-4
0.474, -9.894e-4
0.473, -9.907e-4
0.472, -9.926e-4
0.471, -9.962e-4
0.470, -8.749e-4
0.471, -5.723e-4
0.472, -3.416e-4
0.473, -1.606e-4
0.474, -1.528e-5
0.475, 1.031e-4
0.476, 2.012e-4
0.477, 2.820e-4
0.478, 3.517e-4
0.479, 4.104e-4
0.480, 4.581e-4
0.481, 4.998e-4
0.482, 5.362e-4
0.483, 5.711e-4
0.484, 6.029e-4
0.485, 6.298e-4
0.486, 6.540e-4
0.487, 6.771e-4
0.488, 6.994e-4
0.489, 7.191e-4
0.490, 7.336e-4
0.491, 7.464e-4
0.492, 7.591e-4
0.493, 7.725e-4
0.494, 7.851e-4
0.495, 7.967e-4
0.496, 8.057e-4
0.497, 8.159e-4
0.498, 8.278e-4
0.499, 8.384e-4
0.500, 8.454e-4
0.501, 8.488e-4
0.502, 8.531e-4
0.503, 8.608e-4
0.504, 8.688e-4
0.505, 8.765e-4
0.506, 8.809e-4
0.507, 8.842e-4
0.508, 8.918e-4
0.509, 9.014e-4
0.510, 9.075e-4
0.511, 9.095e-4
0.512, 9.097e-4
0.513, 9.111e-4
0.514, 9.162e-4
0.515, 9.225e-4
0.516, 9.271e-4
0.517, 9.303e-4
0.518, 9.347e-4
0.519, 9.421e-4
0.520, 9.451e-4
0.521, 9.463e-4
0.522, 9.448e-4
0.523, 9.448e-4
0.524, 9.511e-4
0.525, 9.586e-4
0.526, 9.610e-4
0.527, 9.616e-4
0.528, 9.643e-4
0.529, 9.704e-4
0.530, 9.732e-4
0.531, 9.732e-4
0.532, 9.725e-4
0.533, 9.708e-4
0.534, 9.712e-4
0.535, 9.789e-4
0.536, 9.839e-4
0.537, 9.880e-4
0.538, 9.913e-4
0.539, 9.933e-4
0.540, 9.942e-4
0.541, 9.920e-4
0.542, 9.899e-4
0.543, 9.902e-4
0.544, 9.927e-4
0.545, 9.962e-4
0.546, 9.973e-4
0.547, 9.976e-4
0.548, 1.002e-3
0.549, 1.008e-3
0.550, 1.012e-3
0.551, 1.011e-3
0.552, 1.010e-3
0.553, 1.010e-3
0.554, 1.013e-3
0.555, 1.016e-3
0.556, 1.019e-3
0.557, 1.020e-3
0.558, 1.021e-3
0.559, 1.023e-3
0.560, 1.023e-3
0.561, 1.023e-3
0.562, 1.023e-3
0.563, 1.026e-3
0.564, 1.027e-3
0.565, 1.029e-3
0.566, 1.030e-3
0.567, 1.031e-3
0.568, 1.033e-3
0.569, 1.036e-3
0.570, 9.150e-4
0.569, 6.065e-4
0.568, 3.646e-4
0.567, 1.747e-4
0.566, 2.319e-5
0.565, -1.006e-4
0.564, -2.026e-4
0.563, -2.870e-4
0.562, -3.576e-4
0.561, -4.177e-4
0.560, -4.724e-4
0.559, -5.213e-4
0.558, -5.625e-4
0.557, -5.999e-4
0.556, -6.345e-4
0.555, -6.644e-4
0.554, -6.895e-4
0.553, -7.087e-4
0.552, -7.250e-4
0.551, -7.419e-4
0.550, -7.588e-4
0.549, -7.757e-4
0.548, -7.899e-4
0.547, -7.999e-4
0.546, -8.116e-4
0.545, -8.244e-4
0.544, -8.358e-4
0.543, -8.428e-4
0.542, -8.458e-4
0.541, -8.493e-4
0.540, -8.591e-4
0.539, -8.695e-4
0.538, -8.780e-4
0.537, -8.822e-4
0.536, -8.851e-4
0.535, -8.947e-4
0.534, -9.034e-4
0.533, -9.084e-4
0.532, -9.096e-4
0.531, -9.083e-4
0.530, -9.086e-4
0.529, -9.129e-4
0.528, -9.196e-4
0.527, -9.241e-4
0.526, -9.268e-4
0.525, -9.301e-4
0.524, -9.351e-4
0.523, -9.386e-4
0.522, -9.392e-4
0.521, -9.384e-4
0.520, -9.357e-4
0.519, -9.391e-4
0.518, -9.461e-4
0.517, -9.506e-4
0.516, -9.536e-4
0.515, -9.544e-4
0.514, -9.563e-4
0.513, -9.572e-4
0.512, -9.567e-4
0.511, -9.558e-4
0.510, -9.562e-4
0.509, -9.592e-4
0.508, -9.634e-4
0.507, -9.651e-4
0.506, -9.673e-4
0.505, -9.689e-4
0.504, -9.707e-4
0.503, -9.740e-4
0.502, -9.731e-4
0.501, -9.715e-4
0.500, -9.709e-4
0.499, -9.714e-4
0.498, -9.735e-4
0.497, -9.742e-4
0.496, -9.746e-4
0.495, -9.773e-4
0.494, -9.798e-4
0.493, -9.832e-4
0.492, -9.837e-4
0.491, -9.804e-4
0.490, -9.785e-4
0.489, -9.789e-4
0.488, -9.792e-4
0.487, -9.813e-4
0.486, -9.841e-4
0.485, -9.865e-4
0.484, -9.891e-4
0.483, -9.897e-4
0.482, -9.879e-4
0.481, -9.847e-4
0.480, -9.849e-4
0.479, -9.864e-4
0.478, -9.874e-4
0.477, -9.883e-4
0.476, -9.894e-4
0.475, -9.914e-4
0.474, -9.949e-4
0.473, -9.972e-4
0.472, -9.957e-4
0.471, -9.919e-4
0.470, -8.664e-4
0.471, -5.636e-4
0.472, -3.339e-4
0.473, -1.548e-4
0.474, -1.252e-5
0.475, 1.026e-4
0.476, 1.979e-4
0.477, 2.776e-4
0.478, 3.478e-4
0.479, 4.087e-4
0.480, 4.594e-4
0.481, 5.045e-4
0.482, 5.433e-4
0.483, 5.761e-4
0.484, 6.055e-4
0.485, 6.311e-4
0.486, 6.538e-4
0.487, 6.762e-4
0.488, 6.969e-4
0.489, 7.174e-4
0.490, 7.333e-4
0.491, 7.471e-4
0.492, 7.620e-4
0.493, 7.765e-4
0.494, 7.879e-4
0.495, 7.973e-4
0.496, 8.044e-4
0.497, 8.140e-4
0.498, 8.245e-4
0.499, 8.358e-4
0.500, 8.437e-4
0.501, 8.503e-4
0.502, 8.589e-4
0.503, 8.679e-4
0.504, 8.735e-4
0.505, 8.784e-4
0.506, 8.802e-4
0.507, 8.828e-4
0.508, 8.897e-4
0.509, 8.965e-4
0.510, 9.024e-4
0.511, 9.075e-4
0.512, 9.114e-4
0.513, 9.167e-4
0.514, 9.205e-4
0.515, 9.227e-4
0.516, 9.256e-4
0.517, 9.297e-4
0.518, 9.363e-4
0.519, 9.415e-4
0.520, 9.430e-4
0.521, 9.432e-4
0.522, 9.459e-4
0.523, 9.525e-4
0.524, 9.564e-4
0.525, 9.556e-4
0.526, 9.548e-4
0.527, 9.557e-4
0.528, 9.595e-4
0.529, 9.665e-4
0.530, 9.697e-4
0.531, 9.732e-4
0.532, 9.772e-4
0.533, 9.805e-4
0.534, 9.820e-4
0.535, 9.822e-4
0.536, 9.804e-4
0.537, 9.801e-4
0.538, 9.835e-4
0.539, 9.883e-4
0.540, 9.923e-4
0.541, 9.927e-4
0.542, 9.936e-4
0.543, 9.965e-4
0.544, 9.990e-4
0.545, 1.000e-3
0.546, 9.998e-4
0.547, 9.977e-4
0.548, 9.991e-4
0.549, 1.004e-3
0.550, 1.009e-3
0.551, 1.011e-3
0.552, 1.010e-3
0.553, 1.014e-3
0.554, 1.017e-3
0.555, 1.016e-3
0.556, 1.016e-3
0.557, 1.016e-3
0.558, 1.017e-3
0.559, 1.019e-3
0.560, 1.021e-3
0.561, 1.023e-3
0.562, 1.023e-3
0.563, 1.026e-3
0.564, 1.030e-3
0.565, 1.031e-3
0.566, 1.029e-3
0.567, 1.027e-3
0.568, 1.026e-3
0.569, 1.028e-3
0.570, 9.085e-4
0.569, 6.027e-4
0.568, 3.643e-4
0.567, 1.780e-4
0.566, 2.883e-5
0.565, -9.541e-5
0.564, -1.997e-4
0.563, -2.874e-4
0.562, -3.619e-4
0.561, -4.258e-4
0.560, -4.804e-4
0.559, -5.247e-4
0.558, -5.625e-4
0.557, -5.974e-4
0.556, -6.307e-4
0.555, -6.597e-4
0.554, -6.852e-4
0.553, -7.058e-4
0.552, -7.250e-4
0.551, -7.459e-4
0.550, -7.645e-4
0.549, -7.781e-4
0.548, -7.888e-4
0.547, -7.959e-4
0.546, -8.073e-4
0.545, -8.215e-4
0.544, -8.349e-4
0.543, -8.459e-4
0.542, -8.533e-4
0.541, -8.618e-4
0.540, -8.694e-4
0.539, -8.726e-4
0.538, -8.759e-4
0.537, -8.790e-4
0.536, -8.837e-4
0.535, -8.919e-4
0.534, -8.983e-4
0.533, -9.027e-4
0.532, -9.069e-4
0.531, -9.120e-4
0.530, -9.173e-4
0.529, -9.180e-4
0.528, -9.176e-4
0.527, -9.201e-4
0.526, -9.226e-4
0.525, -9.265e-4
0.524, -9.305e-4
0.523, -9.324e-4
0.522, -9.363e-4
0.521, -9.400e-4
0.520, -9.425e-4
0.519, -9.440e-4
0.518, -9.431e-4
0.517, -9.441e-4
0.516, -9.466e-4
0.515, -9.499e-4
0.514, -9.546e-4
0.513, -9.567e-4
0.512, -9.587e-4
0.511, -9.615e-4
0.510, -9.628e-4
0.509, -9.641e-4
0.508, -9.633e-4
0.507, -9.614e-4
0.506, -9.620e-4
0.505, -9.643e-4
0.504, -9.667e-4
0.503, -9.687e-4
0.502, -9.684e-4
0.501, -9.697e-4
0.500, -9.742e-4
0.499, -9.763e-4
0.498, -9.752e-4
0.497, -9.731e-4
0.496, -9.738e-4
0.495, -9.751e-4
0.494, -9.767e-4
0.493, -9.784e-4
0.492, -9.791e-4
0.491, -9.772e-4
0.490, -9.807e-4
0.489, -9.858e-4
0.488, -9.854e-4
0.487, -9.822e-4
0.486, -9.789e-4
0.485, -9.793e-4
0.484, -9.836e-4
0.483, -9.872e-4
0.482, -9.878e-4
0.481, -9.858e-4
0.480, -9.849e-4
0.479, -9.897e-4
0.478, -9.911e-4
0.477, -9.899e-4
0.476, -9.885e-4
0.475, -9.884e-4
0.474, -9.936e-4
0.473, -9.986e-4
0.472, -9.993e-4
0.471, -9.977e-4
