Nov. 23, 2024   17:50:13
Cyclic Voltammetry
File: e:\2023data\yx\20241123\6-1\cv-80.bin
Data Source:  Experiment
Instrument Model:  CHI660E
Header: 
Note: 

Init E (V) = 0.47
High E (V) = 0.57
Low E (V) = 0.47
Init P/N = P
Scan Rate (V/s) = 0.08
Segment = 10
Sample Interval (V) = 0.001
Quiet Time (sec) = 2
Sensitivity (A/V) = 0.001

Results:

Channel 1:
Segment 1:

Segment 2:

Segment 3:

Segment 4:

Segment 5:

Segment 6:

Segment 7:

Segment 8:

Segment 9:

Segment 10:

Potential/V, Current/A

0.470, 5.374e-5
0.471, 2.131e-4
0.472, 3.458e-4
0.473, 4.556e-4
0.474, 5.445e-4
0.475, 6.190e-4
0.476, 6.813e-4
0.477, 7.332e-4
0.478, 7.821e-4
0.479, 8.242e-4
0.480, 8.625e-4
0.481, 8.972e-4
0.482, 9.254e-4
0.483, 9.534e-4
0.484, 9.777e-4
0.485, 9.999e-4
0.486, 1.024e-3
0.487, 1.043e-3
0.488, 1.057e-3
0.489, 1.070e-3
0.490, 1.080e-3
0.491, 1.092e-3
0.492, 1.105e-3
0.493, 1.119e-3
0.494, 1.133e-3
0.495, 1.142e-3
0.496, 1.149e-3
0.497, 1.156e-3
0.498, 1.163e-3
0.499, 1.174e-3
0.500, 1.186e-3
0.501, 1.194e-3
0.502, 1.203e-3
0.503, 1.208e-3
0.504, 1.212e-3
0.505, 1.218e-3
0.506, 1.222e-3
0.507, 1.230e-3
0.508, 1.235e-3
0.509, 1.237e-3
0.510, 1.242e-3
0.511, 1.245e-3
0.512, 1.252e-3
0.513, 1.260e-3
0.514, 1.262e-3
0.515, 1.265e-3
0.516, 1.266e-3
0.517, 1.266e-3
0.518, 1.270e-3
0.519, 1.273e-3
0.520, 1.277e-3
0.521, 1.282e-3
0.522, 1.285e-3
0.523, 1.288e-3
0.524, 1.290e-3
0.525, 1.293e-3
0.526, 1.300e-3
0.527, 1.306e-3
0.528, 1.310e-3
0.529, 1.313e-3
0.530, 1.311e-3
0.531, 1.312e-3
0.532, 1.313e-3
0.533, 1.313e-3
0.534, 1.316e-3
0.535, 1.320e-3
0.536, 1.321e-3
0.537, 1.323e-3
0.538, 1.324e-3
0.539, 1.328e-3
0.540, 1.335e-3
0.541, 1.340e-3
0.542, 1.344e-3
0.543, 1.342e-3
0.544, 1.341e-3
0.545, 1.339e-3
0.546, 1.339e-3
0.547, 1.343e-3
0.548, 1.348e-3
0.549, 1.349e-3
0.550, 1.350e-3
0.551, 1.348e-3
0.552, 1.352e-3
0.553, 1.360e-3
0.554, 1.365e-3
0.555, 1.369e-3
0.556, 1.371e-3
0.557, 1.369e-3
0.558, 1.369e-3
0.559, 1.367e-3
0.560, 1.368e-3
0.561, 1.371e-3
0.562, 1.373e-3
0.563, 1.378e-3
0.564, 1.379e-3
0.565, 1.378e-3
0.566, 1.381e-3
0.567, 1.384e-3
0.568, 1.388e-3
0.569, 1.391e-3
0.570, 1.275e-3
0.569, 9.483e-4
0.568, 6.745e-4
0.567, 4.504e-4
0.566, 2.647e-4
0.565, 1.061e-4
0.564, -2.897e-5
0.563, -1.446e-4
0.562, -2.462e-4
0.561, -3.332e-4
0.560, -4.116e-4
0.559, -4.829e-4
0.558, -5.449e-4
0.557, -6.036e-4
0.556, -6.550e-4
0.555, -6.992e-4
0.554, -7.433e-4
0.553, -7.810e-4
0.552, -8.163e-4
0.551, -8.482e-4
0.550, -8.737e-4
0.549, -8.973e-4
0.548, -9.180e-4
0.547, -9.371e-4
0.546, -9.578e-4
0.545, -9.760e-4
0.544, -9.950e-4
0.543, -1.014e-3
0.542, -1.028e-3
0.541, -1.043e-3
0.540, -1.055e-3
0.539, -1.065e-3
0.538, -1.078e-3
0.537, -1.089e-3
0.536, -1.098e-3
0.535, -1.106e-3
0.534, -1.112e-3
0.533, -1.118e-3
0.532, -1.124e-3
0.531, -1.131e-3
0.530, -1.140e-3
0.529, -1.147e-3
0.528, -1.152e-3
0.527, -1.159e-3
0.526, -1.165e-3
0.525, -1.174e-3
0.524, -1.182e-3
0.523, -1.185e-3
0.522, -1.190e-3
0.521, -1.192e-3
0.520, -1.193e-3
0.519, -1.198e-3
0.518, -1.201e-3
0.517, -1.207e-3
0.516, -1.212e-3
0.515, -1.215e-3
0.514, -1.220e-3
0.513, -1.221e-3
0.512, -1.226e-3
0.511, -1.232e-3
0.510, -1.235e-3
0.509, -1.238e-3
0.508, -1.238e-3
0.507, -1.236e-3
0.506, -1.236e-3
0.505, -1.236e-3
0.504, -1.237e-3
0.503, -1.241e-3
0.502, -1.242e-3
0.501, -1.244e-3
0.500, -1.247e-3
0.499, -1.248e-3
0.498, -1.253e-3
0.497, -1.258e-3
0.496, -1.265e-3
0.495, -1.269e-3
0.494, -1.268e-3
0.493, -1.268e-3
0.492, -1.264e-3
0.491, -1.261e-3
0.490, -1.266e-3
0.489, -1.270e-3
0.488, -1.273e-3
0.487, -1.275e-3
0.486, -1.276e-3
0.485, -1.278e-3
0.484, -1.281e-3
0.483, -1.282e-3
0.482, -1.286e-3
0.481, -1.285e-3
0.480, -1.283e-3
0.479, -1.283e-3
0.478, -1.278e-3
0.477, -1.277e-3
0.476, -1.279e-3
0.475, -1.282e-3
0.474, -1.287e-3
0.473, -1.289e-3
0.472, -1.289e-3
0.471, -1.292e-3
0.470, -1.183e-3
0.471, -8.670e-4
0.472, -6.029e-4
0.473, -3.835e-4
0.474, -2.044e-4
0.475, -5.248e-5
0.476, 7.629e-5
0.477, 1.856e-4
0.478, 2.818e-4
0.479, 3.638e-4
0.480, 4.353e-4
0.481, 4.998e-4
0.482, 5.551e-4
0.483, 6.073e-4
0.484, 6.554e-4
0.485, 6.967e-4
0.486, 7.374e-4
0.487, 7.718e-4
0.488, 8.026e-4
0.489, 8.328e-4
0.490, 8.601e-4
0.491, 8.877e-4
0.492, 9.109e-4
0.493, 9.294e-4
0.494, 9.486e-4
0.495, 9.641e-4
0.496, 9.790e-4
0.497, 9.960e-4
0.498, 1.011e-3
0.499, 1.026e-3
0.500, 1.040e-3
0.501, 1.050e-3
0.502, 1.063e-3
0.503, 1.075e-3
0.504, 1.087e-3
0.505, 1.100e-3
0.506, 1.108e-3
0.507, 1.114e-3
0.508, 1.121e-3
0.509, 1.126e-3
0.510, 1.133e-3
0.511, 1.141e-3
0.512, 1.150e-3
0.513, 1.158e-3
0.514, 1.162e-3
0.515, 1.167e-3
0.516, 1.174e-3
0.517, 1.183e-3
0.518, 1.197e-3
0.519, 1.206e-3
0.520, 1.211e-3
0.521, 1.215e-3
0.522, 1.215e-3
0.523, 1.216e-3
0.524, 1.220e-3
0.525, 1.225e-3
0.526, 1.231e-3
0.527, 1.235e-3
0.528, 1.237e-3
0.529, 1.240e-3
0.530, 1.242e-3
0.531, 1.251e-3
0.532, 1.259e-3
0.533, 1.262e-3
0.534, 1.266e-3
0.535, 1.267e-3
0.536, 1.267e-3
0.537, 1.271e-3
0.538, 1.274e-3
0.539, 1.279e-3
0.540, 1.283e-3
0.541, 1.284e-3
0.542, 1.286e-3
0.543, 1.287e-3
0.544, 1.292e-3
0.545, 1.302e-3
0.546, 1.306e-3
0.547, 1.310e-3
0.548, 1.312e-3
0.549, 1.311e-3
0.550, 1.312e-3
0.551, 1.311e-3
0.552, 1.312e-3
0.553, 1.319e-3
0.554, 1.322e-3
0.555, 1.325e-3
0.556, 1.327e-3
0.557, 1.327e-3
0.558, 1.328e-3
0.559, 1.332e-3
0.560, 1.335e-3
0.561, 1.338e-3
0.562, 1.337e-3
0.563, 1.336e-3
0.564, 1.336e-3
0.565, 1.335e-3
0.566, 1.340e-3
0.567, 1.347e-3
0.568, 1.353e-3
0.569, 1.357e-3
0.570, 1.244e-3
0.569, 9.208e-4
0.568, 6.522e-4
0.567, 4.294e-4
0.566, 2.441e-4
0.565, 8.337e-5
0.564, -5.351e-5
0.563, -1.715e-4
0.562, -2.751e-4
0.561, -3.634e-4
0.560, -4.422e-4
0.559, -5.130e-4
0.558, -5.731e-4
0.557, -6.283e-4
0.556, -6.769e-4
0.555, -7.179e-4
0.554, -7.589e-4
0.553, -7.963e-4
0.552, -8.313e-4
0.551, -8.643e-4
0.550, -8.915e-4
0.549, -9.166e-4
0.548, -9.402e-4
0.547, -9.613e-4
0.546, -9.828e-4
0.545, -9.987e-4
0.544, -1.012e-3
0.543, -1.028e-3
0.542, -1.040e-3
0.541, -1.053e-3
0.540, -1.067e-3
0.539, -1.077e-3
0.538, -1.089e-3
0.537, -1.099e-3
0.536, -1.109e-3
0.535, -1.123e-3
0.534, -1.133e-3
0.533, -1.144e-3
0.532, -1.150e-3
0.531, -1.153e-3
0.530, -1.157e-3
0.529, -1.160e-3
0.528, -1.166e-3
0.527, -1.173e-3
0.526, -1.178e-3
0.525, -1.184e-3
0.524, -1.187e-3
0.523, -1.188e-3
0.522, -1.193e-3
0.521, -1.199e-3
0.520, -1.206e-3
0.519, -1.214e-3
0.518, -1.216e-3
0.517, -1.217e-3
0.516, -1.218e-3
0.515, -1.218e-3
0.514, -1.224e-3
0.513, -1.228e-3
0.512, -1.232e-3
0.511, -1.235e-3
0.510, -1.234e-3
0.509, -1.236e-3
0.508, -1.241e-3
0.507, -1.247e-3
0.506, -1.255e-3
0.505, -1.259e-3
0.504, -1.259e-3
0.503, -1.259e-3
0.502, -1.256e-3
0.501, -1.256e-3
0.500, -1.258e-3
0.499, -1.262e-3
0.498, -1.267e-3
0.497, -1.268e-3
0.496, -1.269e-3
0.495, -1.271e-3
0.494, -1.271e-3
0.493, -1.275e-3
0.492, -1.277e-3
0.491, -1.276e-3
0.490, -1.275e-3
0.489, -1.272e-3
0.488, -1.272e-3
0.487, -1.275e-3
0.486, -1.276e-3
0.485, -1.280e-3
0.484, -1.283e-3
0.483, -1.282e-3
0.482, -1.284e-3
0.481, -1.286e-3
0.480, -1.289e-3
0.479, -1.293e-3
0.478, -1.292e-3
0.477, -1.291e-3
0.476, -1.290e-3
0.475, -1.287e-3
0.474, -1.289e-3
0.473, -1.293e-3
0.472, -1.296e-3
0.471, -1.300e-3
0.470, -1.185e-3
0.471, -8.641e-4
0.472, -6.015e-4
0.473, -3.864e-4
0.474, -2.100e-4
0.475, -5.971e-5
0.476, 7.115e-5
0.477, 1.810e-4
0.478, 2.782e-4
0.479, 3.623e-4
0.480, 4.366e-4
0.481, 5.034e-4
0.482, 5.597e-4
0.483, 6.108e-4
0.484, 6.567e-4
0.485, 6.957e-4
0.486, 7.341e-4
0.487, 7.688e-4
0.488, 8.001e-4
0.489, 8.315e-4
0.490, 8.569e-4
0.491, 8.814e-4
0.492, 9.051e-4
0.493, 9.262e-4
0.494, 9.485e-4
0.495, 9.679e-4
0.496, 9.830e-4
0.497, 9.973e-4
0.498, 1.008e-3
0.499, 1.020e-3
0.500, 1.035e-3
0.501, 1.047e-3
0.502, 1.061e-3
0.503, 1.074e-3
0.504, 1.084e-3
0.505, 1.095e-3
0.506, 1.103e-3
0.507, 1.114e-3
0.508, 1.128e-3
0.509, 1.135e-3
0.510, 1.141e-3
0.511, 1.145e-3
0.512, 1.149e-3
0.513, 1.156e-3
0.514, 1.160e-3
0.515, 1.170e-3
0.516, 1.180e-3
0.517, 1.185e-3
0.518, 1.192e-3
0.519, 1.197e-3
0.520, 1.201e-3
0.521, 1.209e-3
0.522, 1.215e-3
0.523, 1.220e-3
0.524, 1.223e-3
0.525, 1.225e-3
0.526, 1.228e-3
0.527, 1.233e-3
0.528, 1.237e-3
0.529, 1.244e-3
0.530, 1.248e-3
0.531, 1.252e-3
0.532, 1.256e-3
0.533, 1.256e-3
0.534, 1.260e-3
0.535, 1.266e-3
0.536, 1.270e-3
0.537, 1.273e-3
0.538, 1.272e-3
0.539, 1.273e-3
0.540, 1.277e-3
0.541, 1.281e-3
0.542, 1.287e-3
0.543, 1.289e-3
0.544, 1.291e-3
0.545, 1.294e-3
0.546, 1.294e-3
0.547, 1.297e-3
0.548, 1.303e-3
0.549, 1.308e-3
0.550, 1.315e-3
0.551, 1.318e-3
0.552, 1.318e-3
0.553, 1.317e-3
0.554, 1.316e-3
0.555, 1.315e-3
0.556, 1.320e-3
0.557, 1.325e-3
0.558, 1.329e-3
0.559, 1.331e-3
0.560, 1.330e-3
0.561, 1.331e-3
0.562, 1.333e-3
0.563, 1.339e-3
0.564, 1.345e-3
0.565, 1.344e-3
0.566, 1.347e-3
0.567, 1.346e-3
0.568, 1.343e-3
0.569, 1.346e-3
0.570, 1.236e-3
0.569, 9.146e-4
0.568, 6.461e-4
0.567, 4.237e-4
0.566, 2.400e-4
0.565, 8.348e-5
0.564, -5.127e-5
0.563, -1.682e-4
0.562, -2.729e-4
0.561, -3.638e-4
0.560, -4.435e-4
0.559, -5.152e-4
0.558, -5.769e-4
0.557, -6.347e-4
0.556, -6.859e-4
0.555, -7.277e-4
0.554, -7.661e-4
0.553, -7.989e-4
0.552, -8.276e-4
0.551, -8.583e-4
0.550, -8.872e-4
0.549, -9.161e-4
0.548, -9.429e-4
0.547, -9.640e-4
0.546, -9.847e-4
0.545, -1.002e-3
0.544, -1.018e-3
0.543, -1.035e-3
0.542, -1.048e-3
0.541, -1.059e-3
0.540, -1.068e-3
0.539, -1.073e-3
0.538, -1.084e-3
0.537, -1.096e-3
0.536, -1.109e-3
0.535, -1.122e-3
0.534, -1.131e-3
0.533, -1.139e-3
0.532, -1.147e-3
0.531, -1.153e-3
0.530, -1.162e-3
0.529, -1.170e-3
0.528, -1.175e-3
0.527, -1.180e-3
0.526, -1.181e-3
0.525, -1.186e-3
0.524, -1.190e-3
0.523, -1.192e-3
0.522, -1.197e-3
0.521, -1.201e-3
0.520, -1.204e-3
0.519, -1.210e-3
0.518, -1.215e-3
0.517, -1.221e-3
0.516, -1.228e-3
0.515, -1.230e-3
0.514, -1.232e-3
0.513, -1.229e-3
0.512, -1.226e-3
0.511, -1.228e-3
0.510, -1.231e-3
0.509, -1.239e-3
0.508, -1.247e-3
0.507, -1.249e-3
0.506, -1.252e-3
0.505, -1.254e-3
0.504, -1.253e-3
0.503, -1.257e-3
0.502, -1.260e-3
0.501, -1.263e-3
0.500, -1.264e-3
0.499, -1.261e-3
0.498, -1.261e-3
0.497, -1.261e-3
0.496, -1.261e-3
0.495, -1.265e-3
0.494, -1.267e-3
0.493, -1.270e-3
0.492, -1.273e-3
0.491, -1.275e-3
0.490, -1.279e-3
0.489, -1.284e-3
0.488, -1.286e-3
0.487, -1.288e-3
0.486, -1.284e-3
0.485, -1.281e-3
0.484, -1.280e-3
0.483, -1.280e-3
0.482, -1.284e-3
0.481, -1.287e-3
0.480, -1.286e-3
0.479, -1.286e-3
0.478, -1.286e-3
0.477, -1.290e-3
0.476, -1.295e-3
0.475, -1.297e-3
0.474, -1.300e-3
0.473, -1.299e-3
0.472, -1.296e-3
0.471, -1.295e-3
0.470, -1.180e-3
0.471, -8.609e-4
0.472, -5.997e-4
0.473, -3.845e-4
0.474, -2.070e-4
0.475, -5.701e-5
0.476, 7.095e-5
0.477, 1.783e-4
0.478, 2.746e-4
0.479, 3.589e-4
0.480, 4.323e-4
0.481, 4.995e-4
0.482, 5.567e-4
0.483, 6.088e-4
0.484, 6.575e-4
0.485, 6.997e-4
0.486, 7.394e-4
0.487, 7.734e-4
0.488, 8.020e-4
0.489, 8.305e-4
0.490, 8.553e-4
0.491, 8.795e-4
0.492, 9.042e-4
0.493, 9.255e-4
0.494, 9.473e-4
0.495, 9.660e-4
0.496, 9.819e-4
0.497, 9.992e-4
0.498, 1.015e-3
0.499, 1.030e-3
0.500, 1.045e-3
0.501, 1.054e-3
0.502, 1.064e-3
0.503, 1.073e-3
0.504, 1.080e-3
0.505, 1.092e-3
0.506, 1.101e-3
0.507, 1.111e-3
0.508, 1.122e-3
0.509, 1.128e-3
0.510, 1.137e-3
0.511, 1.146e-3
0.512, 1.156e-3
0.513, 1.168e-3
0.514, 1.174e-3
0.515, 1.179e-3
0.516, 1.183e-3
0.517, 1.183e-3
0.518, 1.186e-3
0.519, 1.192e-3
0.520, 1.198e-3
0.521, 1.205e-3
0.522, 1.209e-3
0.523, 1.213e-3
0.524, 1.219e-3
0.525, 1.225e-3
0.526, 1.232e-3
0.527, 1.237e-3
0.528, 1.237e-3
0.529, 1.238e-3
0.530, 1.240e-3
0.531, 1.246e-3
0.532, 1.254e-3
0.533, 1.258e-3
0.534, 1.262e-3
0.535, 1.264e-3
0.536, 1.261e-3
0.537, 1.266e-3
0.538, 1.272e-3
0.539, 1.280e-3
0.540, 1.289e-3
0.541, 1.291e-3
0.542, 1.292e-3
0.543, 1.293e-3
0.544, 1.294e-3
0.545, 1.297e-3
0.546, 1.298e-3
0.547, 1.299e-3
0.548, 1.301e-3
0.549, 1.301e-3
0.550, 1.303e-3
0.551, 1.307e-3
0.552, 1.310e-3
0.553, 1.318e-3
0.554, 1.323e-3
0.555, 1.325e-3
0.556, 1.327e-3
0.557, 1.324e-3
0.558, 1.323e-3
0.559, 1.323e-3
0.560, 1.326e-3
0.561, 1.334e-3
0.562, 1.338e-3
0.563, 1.341e-3
0.564, 1.345e-3
0.565, 1.344e-3
0.566, 1.346e-3
0.567, 1.351e-3
0.568, 1.353e-3
0.569, 1.356e-3
0.570, 1.240e-3
0.569, 9.136e-4
0.568, 6.425e-4
0.567, 4.182e-4
0.566, 2.332e-4
0.565, 7.583e-5
0.564, -5.957e-5
0.563, -1.746e-4
0.562, -2.764e-4
0.561, -3.643e-4
0.560, -4.413e-4
0.559, -5.126e-4
0.558, -5.740e-4
0.557, -6.303e-4
0.556, -6.818e-4
0.555, -7.263e-4
0.554, -7.683e-4
0.553, -8.065e-4
0.552, -8.396e-4
0.551, -8.703e-4
0.550, -8.939e-4
0.549, -9.149e-4
0.548, -9.367e-4
0.547, -9.554e-4
0.546, -9.778e-4
0.545, -9.988e-4
0.544, -1.017e-3
0.543, -1.035e-3
0.542, -1.049e-3
0.541, -1.063e-3
0.540, -1.076e-3
0.539, -1.086e-3
0.538, -1.098e-3
0.537, -1.106e-3
0.536, -1.110e-3
0.535, -1.117e-3
0.534, -1.124e-3
0.533, -1.133e-3
0.532, -1.145e-3
0.531, -1.153e-3
0.530, -1.160e-3
0.529, -1.165e-3
0.528, -1.170e-3
0.527, -1.177e-3
0.526, -1.183e-3
0.525, -1.190e-3
0.524, -1.198e-3
0.523, -1.198e-3
0.522, -1.200e-3
0.521, -1.200e-3
0.520, -1.201e-3
0.519, -1.206e-3
0.518, -1.211e-3
0.517, -1.218e-3
0.516, -1.225e-3
0.515, -1.226e-3
0.514, -1.230e-3
0.513, -1.233e-3
0.512, -1.236e-3
0.511, -1.241e-3
0.510, -1.243e-3
0.509, -1.244e-3
0.508, -1.244e-3
0.507, -1.245e-3
0.506, -1.248e-3
0.505, -1.250e-3
0.504, -1.252e-3
0.503, -1.256e-3
0.502, -1.255e-3
0.501, -1.257e-3
0.500, -1.259e-3
0.499, -1.261e-3
0.498, -1.266e-3
0.497, -1.270e-3
0.496, -1.270e-3
0.495, -1.272e-3
0.494, -1.270e-3
0.493, -1.270e-3
0.492, -1.272e-3
0.491, -1.273e-3
0.490, -1.278e-3
0.489, -1.279e-3
0.488, -1.280e-3
0.487, -1.283e-3
0.486, -1.286e-3
0.485, -1.288e-3
0.484, -1.290e-3
0.483, -1.286e-3
0.482, -1.284e-3
0.481, -1.281e-3
0.480, -1.279e-3
0.479, -1.282e-3
0.478, -1.284e-3
0.477, -1.288e-3
0.476, -1.292e-3
0.475, -1.292e-3
0.474, -1.293e-3
0.473, -1.293e-3
0.472, -1.294e-3
0.471, -1.302e-3
0.470, -1.192e-3
0.471, -8.695e-4
0.472, -6.035e-4
0.473, -3.845e-4
0.474, -2.049e-4
0.475, -5.425e-5
0.476, 7.532e-5
0.477, 1.833e-4
0.478, 2.786e-4
0.479, 3.620e-4
0.480, 4.328e-4
0.481, 4.973e-4
0.482, 5.536e-4
0.483, 6.055e-4
0.484, 6.549e-4
0.485, 6.967e-4
0.486, 7.369e-4
0.487, 7.730e-4
0.488, 8.043e-4
0.489, 8.362e-4
0.490, 8.623e-4
0.491, 8.851e-4
0.492, 9.074e-4
0.493, 9.242e-4
0.494, 9.428e-4
0.495, 9.614e-4
0.496, 9.784e-4
0.497, 9.968e-4
0.498, 1.011e-3
0.499, 1.024e-3
0.500, 1.038e-3
0.501, 1.049e-3
0.502, 1.064e-3
0.503, 1.079e-3
0.504, 1.090e-3
0.505, 1.101e-3
0.506, 1.107e-3
0.507, 1.112e-3
0.508, 1.121e-3
0.509, 1.127e-3
0.510, 1.136e-3
0.511, 1.145e-3
0.512, 1.151e-3
0.513, 1.157e-3
0.514, 1.163e-3
0.515, 1.172e-3
0.516, 1.182e-3
0.517, 1.189e-3
0.518, 1.195e-3
0.519, 1.199e-3
0.520, 1.201e-3
0.521, 1.205e-3
0.522, 1.208e-3
0.523, 1.213e-3
0.524, 1.219e-3
0.525, 1.222e-3
0.526, 1.226e-3
0.527, 1.230e-3
0.528, 1.234e-3
0.529, 1.244e-3
0.530, 1.252e-3
0.531, 1.257e-3
0.532, 1.261e-3
0.533, 1.261e-3
0.534, 1.261e-3
0.535, 1.262e-3
0.536, 1.263e-3
0.537, 1.269e-3
0.538, 1.272e-3
0.539, 1.276e-3
0.540, 1.281e-3
0.541, 1.283e-3
0.542, 1.289e-3
0.543, 1.295e-3
0.544, 1.298e-3
0.545, 1.301e-3
0.546, 1.299e-3
0.547, 1.298e-3
0.548, 1.299e-3
0.549, 1.298e-3
0.550, 1.303e-3
0.551, 1.310e-3
0.552, 1.314e-3
0.553, 1.319e-3
0.554, 1.321e-3
0.555, 1.321e-3
0.556, 1.325e-3
0.557, 1.328e-3
0.558, 1.331e-3
0.559, 1.332e-3
0.560, 1.331e-3
0.561, 1.331e-3
0.562, 1.330e-3
0.563, 1.333e-3
0.564, 1.338e-3
0.565, 1.341e-3
0.566, 1.344e-3
0.567, 1.345e-3
0.568, 1.345e-3
0.569, 1.350e-3
0.570, 1.240e-3
0.569, 9.171e-4
0.568, 6.474e-4
0.567, 4.220e-4
0.566, 2.351e-4
0.565, 7.622e-5
0.564, -6.130e-5
0.563, -1.789e-4
0.562, -2.820e-4
0.561, -3.704e-4
0.560, -4.472e-4
0.559, -5.160e-4
0.558, -5.746e-4
0.557, -6.287e-4
0.556, -6.791e-4
0.555, -7.235e-4
0.554, -7.658e-4
0.553, -8.033e-4
0.552, -8.355e-4
0.551, -8.673e-4
0.550, -8.947e-4
0.549, -9.207e-4
0.548, -9.454e-4
0.547, -9.642e-4
0.546, -9.814e-4
0.545, -9.972e-4
0.544, -1.013e-3
0.543, -1.030e-3
0.542, -1.045e-3
0.541, -1.061e-3
0.540, -1.075e-3
0.539, -1.084e-3
0.538, -1.093e-3
0.537, -1.101e-3
0.536, -1.110e-3
0.535, -1.123e-3
0.534, -1.134e-3
0.533, -1.142e-3
0.532, -1.150e-3
0.531, -1.154e-3
0.530, -1.158e-3
0.529, -1.161e-3
0.528, -1.165e-3
0.527, -1.175e-3
0.526, -1.181e-3
0.525, -1.187e-3
0.524, -1.193e-3
0.523, -1.195e-3
0.522, -1.202e-3
0.521, -1.209e-3
0.520, -1.213e-3
0.519, -1.216e-3
0.518, -1.217e-3
0.517, -1.218e-3
0.516, -1.221e-3
0.515, -1.223e-3
0.514, -1.229e-3
0.513, -1.234e-3
0.512, -1.236e-3
0.511, -1.238e-3
0.510, -1.238e-3
0.509, -1.240e-3
0.508, -1.245e-3
0.507, -1.247e-3
0.506, -1.250e-3
0.505, -1.249e-3
0.504, -1.248e-3
0.503, -1.250e-3
0.502, -1.252e-3
0.501, -1.255e-3
0.500, -1.260e-3
0.499, -1.261e-3
0.498, -1.262e-3
0.497, -1.263e-3
0.496, -1.263e-3
0.495, -1.269e-3
0.494, -1.274e-3
0.493, -1.279e-3
0.492, -1.282e-3
0.491, -1.278e-3
0.490, -1.275e-3
0.489, -1.271e-3
0.488, -1.270e-3
0.487, -1.275e-3
0.486, -1.279e-3
0.485, -1.283e-3
0.484, -1.285e-3
0.483, -1.285e-3
0.482, -1.284e-3
0.481, -1.285e-3
0.480, -1.290e-3
0.479, -1.296e-3
0.478, -1.297e-3
0.477, -1.295e-3
0.476, -1.293e-3
0.475, -1.290e-3
0.474, -1.291e-3
0.473, -1.293e-3
0.472, -1.292e-3
0.471, -1.292e-3
