Nov. 23, 2024   18:43:10
Cyclic Voltammetry
File: d:\yx\20241123\6-3\cv-100.bin
Data Source:  Experiment
Instrument Model:  CHI660E
Header: 
Note: 

Init E (V) = 0.47
High E (V) = 0.57
Low E (V) = 0.47
Init P/N = P
Scan Rate (V/s) = 0.1
Segment = 10
Sample Interval (V) = 0.001
Quiet Time (sec) = 2
Sensitivity (A/V) = 0.001

Results:

Channel 1:
Segment 1:

Segment 2:

Segment 3:

Segment 4:

Segment 5:

Segment 6:

Segment 7:

Segment 8:

Segment 9:

Segment 10:

Potential/V, Current/A

0.470, 6.771e-5
0.471, 2.452e-4
0.472, 4.074e-4
0.473, 5.489e-4
0.474, 6.722e-4
0.475, 7.792e-4
0.476, 8.744e-4
0.477, 9.577e-4
0.478, 1.035e-3
0.479, 1.104e-3
0.480, 1.169e-3
0.481, 1.229e-3
0.482, 1.285e-3
0.483, 1.336e-3
0.484, 1.383e-3
0.485, 1.424e-3
0.486, 1.464e-3
0.487, 1.500e-3
0.488, 1.532e-3
0.489, 1.562e-3
0.490, 1.589e-3
0.491, 1.614e-3
0.492, 1.638e-3
0.493, 1.660e-3
0.494, 1.682e-3
0.495, 1.699e-3
0.496, 1.717e-3
0.497, 1.732e-3
0.498, 1.745e-3
0.499, 1.755e-3
0.500, 1.764e-3
0.501, 1.772e-3
0.502, 1.781e-3
0.503, 1.792e-3
0.504, 1.804e-3
0.505, 1.819e-3
0.506, 1.834e-3
0.507, 1.847e-3
0.508, 1.859e-3
0.509, 1.868e-3
0.510, 1.879e-3
0.511, 1.889e-3
0.512, 1.898e-3
0.513, 1.907e-3
0.514, 1.914e-3
0.515, 1.920e-3
0.516, 1.926e-3
0.517, 1.930e-3
0.518, 1.935e-3
0.519, 1.939e-3
0.520, 1.941e-3
0.521, 1.942e-3
0.522, 1.942e-3
0.523, 1.941e-3
0.524, 1.943e-3
0.525, 1.945e-3
0.526, 1.952e-3
0.527, 1.958e-3
0.528, 1.967e-3
0.529, 1.976e-3
0.530, 1.983e-3
0.531, 1.988e-3
0.532, 1.993e-3
0.533, 1.997e-3
0.534, 2.003e-3
0.535, 2.007e-3
0.536, 2.010e-3
0.537, 2.013e-3
0.538, 2.016e-3
0.539, 2.018e-3
0.540, 2.021e-3
0.541, 2.024e-3
0.542, 2.028e-3
0.543, 2.030e-3
0.544, 2.030e-3
0.545, 2.028e-3
0.546, 2.026e-3
0.547, 2.023e-3
0.548, 2.023e-3
0.549, 2.024e-3
0.550, 2.029e-3
0.551, 2.035e-3
0.552, 2.042e-3
0.553, 2.047e-3
0.554, 2.051e-3
0.555, 2.053e-3
0.556, 2.056e-3
0.557, 2.059e-3
0.558, 2.062e-3
0.559, 2.063e-3
0.560, 2.066e-3
0.561, 2.068e-3
0.562, 2.072e-3
0.563, 2.076e-3
0.564, 2.080e-3
0.565, 2.081e-3
0.566, 2.082e-3
0.567, 2.081e-3
0.568, 2.080e-3
0.569, 2.076e-3
0.570, 1.968e-3
0.569, 1.602e-3
0.568, 1.270e-3
0.567, 9.802e-4
0.566, 7.273e-4
0.565, 5.013e-4
0.564, 3.013e-4
0.563, 1.182e-4
0.562, -4.487e-5
0.561, -1.902e-4
0.560, -3.208e-4
0.559, -4.399e-4
0.558, -5.466e-4
0.557, -6.463e-4
0.556, -7.376e-4
0.555, -8.216e-4
0.554, -8.995e-4
0.553, -9.730e-4
0.552, -1.040e-3
0.551, -1.103e-3
0.550, -1.160e-3
0.549, -1.214e-3
0.548, -1.262e-3
0.547, -1.308e-3
0.546, -1.350e-3
0.545, -1.387e-3
0.544, -1.421e-3
0.543, -1.454e-3
0.542, -1.484e-3
0.541, -1.512e-3
0.540, -1.537e-3
0.539, -1.560e-3
0.538, -1.581e-3
0.537, -1.598e-3
0.536, -1.612e-3
0.535, -1.627e-3
0.534, -1.641e-3
0.533, -1.657e-3
0.532, -1.672e-3
0.531, -1.687e-3
0.530, -1.703e-3
0.529, -1.718e-3
0.528, -1.731e-3
0.527, -1.744e-3
0.526, -1.753e-3
0.525, -1.764e-3
0.524, -1.773e-3
0.523, -1.782e-3
0.522, -1.792e-3
0.521, -1.801e-3
0.520, -1.810e-3
0.519, -1.820e-3
0.518, -1.828e-3
0.517, -1.836e-3
0.516, -1.841e-3
0.515, -1.845e-3
0.514, -1.848e-3
0.513, -1.848e-3
0.512, -1.847e-3
0.511, -1.849e-3
0.510, -1.850e-3
0.509, -1.855e-3
0.508, -1.860e-3
0.507, -1.866e-3
0.506, -1.873e-3
0.505, -1.878e-3
0.504, -1.882e-3
0.503, -1.887e-3
0.502, -1.890e-3
0.501, -1.895e-3
0.500, -1.899e-3
0.499, -1.902e-3
0.498, -1.906e-3
0.497, -1.909e-3
0.496, -1.913e-3
0.495, -1.918e-3
0.494, -1.919e-3
0.493, -1.921e-3
0.492, -1.921e-3
0.491, -1.920e-3
0.490, -1.918e-3
0.489, -1.915e-3
0.488, -1.912e-3
0.487, -1.911e-3
0.486, -1.911e-3
0.485, -1.914e-3
0.484, -1.917e-3
0.483, -1.921e-3
0.482, -1.924e-3
0.481, -1.927e-3
0.480, -1.929e-3
0.479, -1.933e-3
0.478, -1.934e-3
0.477, -1.938e-3
0.476, -1.940e-3
0.475, -1.942e-3
0.474, -1.944e-3
0.473, -1.947e-3
0.472, -1.948e-3
0.471, -1.951e-3
0.470, -1.847e-3
0.471, -1.489e-3
0.472, -1.161e-3
0.473, -8.737e-4
0.474, -6.193e-4
0.475, -3.950e-4
0.476, -1.956e-4
0.477, -2.014e-5
0.478, 1.379e-4
0.479, 2.783e-4
0.480, 4.058e-4
0.481, 5.207e-4
0.482, 6.241e-4
0.483, 7.183e-4
0.484, 8.045e-4
0.485, 8.801e-4
0.486, 9.510e-4
0.487, 1.014e-3
0.488, 1.073e-3
0.489, 1.129e-3
0.490, 1.181e-3
0.491, 1.231e-3
0.492, 1.278e-3
0.493, 1.321e-3
0.494, 1.362e-3
0.495, 1.400e-3
0.496, 1.435e-3
0.497, 1.469e-3
0.498, 1.500e-3
0.499, 1.529e-3
0.500, 1.555e-3
0.501, 1.577e-3
0.502, 1.599e-3
0.503, 1.619e-3
0.504, 1.639e-3
0.505, 1.657e-3
0.506, 1.674e-3
0.507, 1.689e-3
0.508, 1.704e-3
0.509, 1.715e-3
0.510, 1.726e-3
0.511, 1.735e-3
0.512, 1.745e-3
0.513, 1.756e-3
0.514, 1.768e-3
0.515, 1.781e-3
0.516, 1.795e-3
0.517, 1.808e-3
0.518, 1.820e-3
0.519, 1.830e-3
0.520, 1.839e-3
0.521, 1.848e-3
0.522, 1.856e-3
0.523, 1.864e-3
0.524, 1.871e-3
0.525, 1.876e-3
0.526, 1.884e-3
0.527, 1.892e-3
0.528, 1.900e-3
0.529, 1.907e-3
0.530, 1.912e-3
0.531, 1.917e-3
0.532, 1.920e-3
0.533, 1.920e-3
0.534, 1.921e-3
0.535, 1.921e-3
0.536, 1.922e-3
0.537, 1.924e-3
0.538, 1.930e-3
0.539, 1.938e-3
0.540, 1.947e-3
0.541, 1.954e-3
0.542, 1.962e-3
0.543, 1.968e-3
0.544, 1.974e-3
0.545, 1.980e-3
0.546, 1.985e-3
0.547, 1.989e-3
0.548, 1.994e-3
0.549, 1.995e-3
0.550, 2.000e-3
0.551, 2.004e-3
0.552, 2.007e-3
0.553, 2.010e-3
0.554, 2.013e-3
0.555, 2.012e-3
0.556, 2.010e-3
0.557, 2.007e-3
0.558, 2.004e-3
0.559, 2.002e-3
0.560, 2.005e-3
0.561, 2.010e-3
0.562, 2.017e-3
0.563, 2.026e-3
0.564, 2.034e-3
0.565, 2.039e-3
0.566, 2.043e-3
0.567, 2.046e-3
0.568, 2.050e-3
0.569, 2.054e-3
0.570, 1.950e-3
0.569, 1.588e-3
0.568, 1.256e-3
0.567, 9.652e-4
0.566, 7.106e-4
0.565, 4.824e-4
0.564, 2.793e-4
0.563, 9.451e-5
0.562, -7.105e-5
0.561, -2.201e-4
0.560, -3.554e-4
0.559, -4.791e-4
0.558, -5.891e-4
0.557, -6.899e-4
0.556, -7.814e-4
0.555, -8.646e-4
0.554, -9.408e-4
0.553, -1.011e-3
0.552, -1.074e-3
0.551, -1.133e-3
0.550, -1.184e-3
0.549, -1.231e-3
0.548, -1.273e-3
0.547, -1.312e-3
0.546, -1.349e-3
0.545, -1.384e-3
0.544, -1.419e-3
0.543, -1.454e-3
0.542, -1.484e-3
0.541, -1.514e-3
0.540, -1.541e-3
0.539, -1.566e-3
0.538, -1.589e-3
0.537, -1.612e-3
0.536, -1.632e-3
0.535, -1.653e-3
0.534, -1.669e-3
0.533, -1.687e-3
0.532, -1.703e-3
0.531, -1.719e-3
0.530, -1.732e-3
0.529, -1.744e-3
0.528, -1.754e-3
0.527, -1.763e-3
0.526, -1.767e-3
0.525, -1.771e-3
0.524, -1.777e-3
0.523, -1.782e-3
0.522, -1.788e-3
0.521, -1.796e-3
0.520, -1.805e-3
0.519, -1.816e-3
0.518, -1.825e-3
0.517, -1.834e-3
0.516, -1.842e-3
0.515, -1.850e-3
0.514, -1.857e-3
0.513, -1.864e-3
0.512, -1.869e-3
0.511, -1.875e-3
0.510, -1.877e-3
0.509, -1.882e-3
0.508, -1.884e-3
0.507, -1.887e-3
0.506, -1.890e-3
0.505, -1.892e-3
0.504, -1.892e-3
0.503, -1.891e-3
0.502, -1.888e-3
0.501, -1.887e-3
0.500, -1.887e-3
0.499, -1.889e-3
0.498, -1.894e-3
0.497, -1.899e-3
0.496, -1.903e-3
0.495, -1.909e-3
0.494, -1.913e-3
0.493, -1.918e-3
0.492, -1.921e-3
0.491, -1.923e-3
0.490, -1.925e-3
0.489, -1.925e-3
0.488, -1.925e-3
0.487, -1.930e-3
0.486, -1.933e-3
0.485, -1.937e-3
0.484, -1.940e-3
0.483, -1.942e-3
0.482, -1.943e-3
0.481, -1.942e-3
0.480, -1.939e-3
0.479, -1.936e-3
0.478, -1.932e-3
0.477, -1.932e-3
0.476, -1.931e-3
0.475, -1.933e-3
0.474, -1.936e-3
0.473, -1.940e-3
0.472, -1.943e-3
0.471, -1.947e-3
0.470, -1.844e-3
0.471, -1.488e-3
0.472, -1.164e-3
0.473, -8.812e-4
0.474, -6.331e-4
0.475, -4.138e-4
0.476, -2.176e-4
0.477, -4.283e-5
0.478, 1.167e-4
0.479, 2.601e-4
0.480, 3.900e-4
0.481, 5.076e-4
0.482, 6.152e-4
0.483, 7.139e-4
0.484, 8.045e-4
0.485, 8.839e-4
0.486, 9.576e-4
0.487, 1.024e-3
0.488, 1.085e-3
0.489, 1.142e-3
0.490, 1.194e-3
0.491, 1.241e-3
0.492, 1.285e-3
0.493, 1.323e-3
0.494, 1.357e-3
0.495, 1.388e-3
0.496, 1.419e-3
0.497, 1.450e-3
0.498, 1.479e-3
0.499, 1.508e-3
0.500, 1.537e-3
0.501, 1.563e-3
0.502, 1.589e-3
0.503, 1.612e-3
0.504, 1.632e-3
0.505, 1.652e-3
0.506, 1.673e-3
0.507, 1.690e-3
0.508, 1.706e-3
0.509, 1.719e-3
0.510, 1.734e-3
0.511, 1.748e-3
0.512, 1.761e-3
0.513, 1.771e-3
0.514, 1.782e-3
0.515, 1.789e-3
0.516, 1.797e-3
0.517, 1.801e-3
0.518, 1.808e-3
0.519, 1.814e-3
0.520, 1.822e-3
0.521, 1.832e-3
0.522, 1.843e-3
0.523, 1.853e-3
0.524, 1.864e-3
0.525, 1.873e-3
0.526, 1.882e-3
0.527, 1.889e-3
0.528, 1.896e-3
0.529, 1.902e-3
0.530, 1.908e-3
0.531, 1.913e-3
0.532, 1.919e-3
0.533, 1.925e-3
0.534, 1.932e-3
0.535, 1.937e-3
0.536, 1.941e-3
0.537, 1.944e-3
0.538, 1.945e-3
0.539, 1.943e-3
0.540, 1.943e-3
0.541, 1.942e-3
0.542, 1.944e-3
0.543, 1.947e-3
0.544, 1.954e-3
0.545, 1.961e-3
0.546, 1.969e-3
0.547, 1.976e-3
0.548, 1.983e-3
0.549, 1.987e-3
0.550, 1.992e-3
0.551, 1.997e-3
0.552, 2.001e-3
0.553, 2.005e-3
0.554, 2.009e-3
0.555, 2.012e-3
0.556, 2.016e-3
0.557, 2.018e-3
0.558, 2.021e-3
0.559, 2.023e-3
0.560, 2.023e-3
0.561, 2.024e-3
0.562, 2.021e-3
0.563, 2.020e-3
0.564, 2.020e-3
0.565, 2.018e-3
0.566, 2.021e-3
0.567, 2.027e-3
0.568, 2.034e-3
0.569, 2.040e-3
0.570, 1.939e-3
0.569, 1.578e-3
0.568, 1.247e-3
0.567, 9.573e-4
0.566, 7.044e-4
0.565, 4.793e-4
0.564, 2.779e-4
0.563, 9.543e-5
0.562, -6.701e-5
0.561, -2.136e-4
0.560, -3.473e-4
0.559, -4.700e-4
0.558, -5.804e-4
0.557, -6.822e-4
0.556, -7.754e-4
0.555, -8.601e-4
0.554, -9.385e-4
0.553, -1.010e-3
0.552, -1.075e-3
0.551, -1.136e-3
0.550, -1.190e-3
0.549, -1.242e-3
0.548, -1.288e-3
0.547, -1.330e-3
0.546, -1.369e-3
0.545, -1.403e-3
0.544, -1.433e-3
0.543, -1.460e-3
0.542, -1.484e-3
0.541, -1.509e-3
0.540, -1.532e-3
0.539, -1.556e-3
0.538, -1.580e-3
0.537, -1.605e-3
0.536, -1.626e-3
0.535, -1.647e-3
0.534, -1.665e-3
0.533, -1.683e-3
0.532, -1.699e-3
0.531, -1.715e-3
0.530, -1.728e-3
0.529, -1.739e-3
0.528, -1.751e-3
0.527, -1.763e-3
0.526, -1.774e-3
0.525, -1.786e-3
0.524, -1.796e-3
0.523, -1.803e-3
0.522, -1.809e-3
0.521, -1.813e-3
0.520, -1.814e-3
0.519, -1.816e-3
0.518, -1.818e-3
0.517, -1.822e-3
0.516, -1.827e-3
0.515, -1.835e-3
0.514, -1.843e-3
0.513, -1.851e-3
0.512, -1.859e-3
0.511, -1.867e-3
0.510, -1.872e-3
0.509, -1.878e-3
0.508, -1.882e-3
0.507, -1.885e-3
0.506, -1.888e-3
0.505, -1.892e-3
0.504, -1.896e-3
0.503, -1.900e-3
0.502, -1.903e-3
0.501, -1.907e-3
0.500, -1.910e-3
0.499, -1.910e-3
0.498, -1.908e-3
0.497, -1.905e-3
0.496, -1.902e-3
0.495, -1.902e-3
0.494, -1.903e-3
0.493, -1.906e-3
0.492, -1.910e-3
0.491, -1.916e-3
0.490, -1.920e-3
0.489, -1.925e-3
0.488, -1.928e-3
0.487, -1.932e-3
0.486, -1.934e-3
0.485, -1.938e-3
0.484, -1.939e-3
0.483, -1.941e-3
0.482, -1.942e-3
0.481, -1.943e-3
0.480, -1.945e-3
0.479, -1.947e-3
0.478, -1.947e-3
0.477, -1.947e-3
0.476, -1.946e-3
0.475, -1.942e-3
0.474, -1.939e-3
0.473, -1.936e-3
0.472, -1.934e-3
0.471, -1.936e-3
0.470, -1.834e-3
0.471, -1.480e-3
0.472, -1.157e-3
0.473, -8.737e-4
0.474, -6.243e-4
0.475, -4.056e-4
0.476, -2.108e-4
0.477, -3.978e-5
0.478, 1.152e-4
0.479, 2.538e-4
0.480, 3.803e-4
0.481, 4.959e-4
0.482, 6.030e-4
0.483, 7.013e-4
0.484, 7.927e-4
0.485, 8.738e-4
0.486, 9.497e-4
0.487, 1.019e-3
0.488, 1.082e-3
0.489, 1.141e-3
0.490, 1.195e-3
0.491, 1.243e-3
0.492, 1.287e-3
0.493, 1.328e-3
0.494, 1.368e-3
0.495, 1.403e-3
0.496, 1.437e-3
0.497, 1.467e-3
0.498, 1.492e-3
0.499, 1.515e-3
0.500, 1.537e-3
0.501, 1.555e-3
0.502, 1.576e-3
0.503, 1.597e-3
0.504, 1.619e-3
0.505, 1.641e-3
0.506, 1.664e-3
0.507, 1.683e-3
0.508, 1.701e-3
0.509, 1.716e-3
0.510, 1.731e-3
0.511, 1.746e-3
0.512, 1.760e-3
0.513, 1.773e-3
0.514, 1.784e-3
0.515, 1.794e-3
0.516, 1.805e-3
0.517, 1.813e-3
0.518, 1.823e-3
0.519, 1.831e-3
0.520, 1.838e-3
0.521, 1.843e-3
0.522, 1.846e-3
0.523, 1.848e-3
0.524, 1.852e-3
0.525, 1.856e-3
0.526, 1.863e-3
0.527, 1.872e-3
0.528, 1.882e-3
0.529, 1.892e-3
0.530, 1.900e-3
0.531, 1.907e-3
0.532, 1.914e-3
0.533, 1.920e-3
0.534, 1.927e-3
0.535, 1.932e-3
0.536, 1.938e-3
0.537, 1.943e-3
0.538, 1.948e-3
0.539, 1.954e-3
0.540, 1.960e-3
0.541, 1.963e-3
0.542, 1.964e-3
0.543, 1.964e-3
0.544, 1.963e-3
0.545, 1.963e-3
0.546, 1.962e-3
0.547, 1.962e-3
0.548, 1.966e-3
0.549, 1.972e-3
0.550, 1.980e-3
0.551, 1.988e-3
0.552, 1.993e-3
0.553, 1.999e-3
0.554, 2.003e-3
0.555, 2.007e-3
0.556, 2.012e-3
0.557, 2.015e-3
0.558, 2.018e-3
0.559, 2.019e-3
0.560, 2.022e-3
0.561, 2.025e-3
0.562, 2.027e-3
0.563, 2.032e-3
0.564, 2.036e-3
0.565, 2.035e-3
0.566, 2.034e-3
0.567, 2.030e-3
0.568, 2.026e-3
0.569, 2.025e-3
0.570, 1.920e-3
0.569, 1.560e-3
0.568, 1.233e-3
0.567, 9.468e-4
0.566, 6.961e-4
0.565, 4.704e-4
0.564, 2.697e-4
0.563, 8.843e-5
0.562, -7.161e-5
0.561, -2.149e-4
0.560, -3.448e-4
0.559, -4.648e-4
0.558, -5.738e-4
0.557, -6.750e-4
0.556, -7.672e-4
0.555, -8.534e-4
0.554, -9.314e-4
0.553, -1.004e-3
0.552, -1.070e-3
0.551, -1.132e-3
0.550, -1.188e-3
0.549, -1.240e-3
0.548, -1.286e-3
0.547, -1.329e-3
0.546, -1.368e-3
0.545, -1.404e-3
0.544, -1.438e-3
0.543, -1.471e-3
0.542, -1.498e-3
0.541, -1.523e-3
0.540, -1.544e-3
0.539, -1.563e-3
0.538, -1.581e-3
0.537, -1.599e-3
0.536, -1.618e-3
0.535, -1.637e-3
0.534, -1.655e-3
0.533, -1.675e-3
0.532, -1.692e-3
0.531, -1.709e-3
0.530, -1.724e-3
0.529, -1.738e-3
0.528, -1.751e-3
0.527, -1.763e-3
0.526, -1.773e-3
0.525, -1.781e-3
0.524, -1.789e-3
0.523, -1.798e-3
0.522, -1.806e-3
0.521, -1.814e-3
0.520, -1.821e-3
0.519, -1.827e-3
0.518, -1.830e-3
0.517, -1.833e-3
0.516, -1.835e-3
0.515, -1.839e-3
0.514, -1.843e-3
0.513, -1.849e-3
0.512, -1.854e-3
0.511, -1.861e-3
0.510, -1.867e-3
0.509, -1.874e-3
0.508, -1.879e-3
0.507, -1.884e-3
0.506, -1.887e-3
0.505, -1.891e-3
0.504, -1.894e-3
0.503, -1.898e-3
0.502, -1.901e-3
0.501, -1.905e-3
0.500, -1.909e-3
0.499, -1.912e-3
0.498, -1.916e-3
0.497, -1.918e-3
0.496, -1.918e-3
0.495, -1.917e-3
0.494, -1.914e-3
0.493, -1.911e-3
0.492, -1.909e-3
0.491, -1.909e-3
0.490, -1.912e-3
0.489, -1.915e-3
0.488, -1.919e-3
0.487, -1.924e-3
0.486, -1.925e-3
0.485, -1.928e-3
0.484, -1.930e-3
0.483, -1.933e-3
0.482, -1.938e-3
0.481, -1.941e-3
0.480, -1.944e-3
0.479, -1.947e-3
0.478, -1.947e-3
0.477, -1.949e-3
0.476, -1.950e-3
0.475, -1.950e-3
0.474, -1.951e-3
0.473, -1.951e-3
0.472, -1.950e-3
0.471, -1.948e-3
0.470, -1.840e-3
0.471, -1.478e-3
0.472, -1.150e-3
0.473, -8.668e-4
0.474, -6.179e-4
0.475, -3.988e-4
0.476, -2.035e-4
0.477, -3.002e-5
0.478, 1.266e-4
0.479, 2.657e-4
0.480, 3.913e-4
0.481, 5.039e-4
0.482, 6.054e-4
0.483, 6.982e-4
0.484, 7.851e-4
0.485, 8.640e-4
0.486, 9.402e-4
0.487, 1.009e-3
0.488, 1.074e-3
0.489, 1.133e-3
0.490, 1.187e-3
0.491, 1.237e-3
0.492, 1.284e-3
0.493, 1.327e-3
0.494, 1.368e-3
0.495, 1.404e-3
0.496, 1.437e-3
0.497, 1.468e-3
0.498, 1.496e-3
0.499, 1.523e-3
0.500, 1.550e-3
0.501, 1.572e-3
0.502, 1.594e-3
0.503, 1.612e-3
0.504, 1.628e-3
0.505, 1.643e-3
0.506, 1.657e-3
0.507, 1.670e-3
0.508, 1.686e-3
0.509, 1.701e-3
0.510, 1.719e-3
0.511, 1.736e-3
0.512, 1.752e-3
0.513, 1.767e-3
0.514, 1.779e-3
0.515, 1.789e-3
0.516, 1.801e-3
0.517, 1.811e-3
0.518, 1.823e-3
0.519, 1.832e-3
0.520, 1.841e-3
0.521, 1.849e-3
0.522, 1.858e-3
0.523, 1.865e-3
0.524, 1.872e-3
0.525, 1.877e-3
0.526, 1.882e-3
0.527, 1.885e-3
0.528, 1.887e-3
0.529, 1.888e-3
0.530, 1.890e-3
0.531, 1.893e-3
0.532, 1.897e-3
0.533, 1.903e-3
0.534, 1.912e-3
0.535, 1.921e-3
0.536, 1.929e-3
0.537, 1.935e-3
0.538, 1.941e-3
0.539, 1.946e-3
0.540, 1.951e-3
0.541, 1.957e-3
0.542, 1.962e-3
0.543, 1.965e-3
0.544, 1.969e-3
0.545, 1.973e-3
0.546, 1.979e-3
0.547, 1.983e-3
0.548, 1.988e-3
0.549, 1.990e-3
0.550, 1.993e-3
0.551, 1.993e-3
0.552, 1.992e-3
0.553, 1.990e-3
0.554, 1.988e-3
0.555, 1.986e-3
0.556, 1.988e-3
0.557, 1.991e-3
0.558, 1.999e-3
0.559, 2.006e-3
0.560, 2.014e-3
0.561, 2.020e-3
0.562, 2.025e-3
0.563, 2.029e-3
0.564, 2.033e-3
0.565, 2.035e-3
0.566, 2.038e-3
0.567, 2.039e-3
0.568, 2.041e-3
0.569, 2.045e-3
0.570, 1.942e-3
0.569, 1.581e-3
0.568, 1.250e-3
0.567, 9.580e-4
0.566, 7.014e-4
0.565, 4.711e-4
0.564, 2.662e-4
0.563, 8.002e-5
0.562, -8.539e-5
0.561, -2.326e-4
0.560, -3.654e-4
0.559, -4.859e-4
0.558, -5.937e-4
0.557, -6.936e-4
0.556, -7.838e-4
0.555, -8.665e-4
0.554, -9.411e-4
0.553, -1.009e-3
0.552, -1.069e-3
0.551, -1.124e-3
0.550, -1.174e-3
0.549, -1.223e-3
0.548, -1.268e-3
0.547, -1.311e-3
0.546, -1.352e-3
0.545, -1.392e-3
0.544, -1.428e-3
0.543, -1.463e-3
0.542, -1.493e-3
0.541, -1.524e-3
0.540, -1.551e-3
0.539, -1.576e-3
0.538, -1.599e-3
0.537, -1.620e-3
0.536, -1.638e-3
0.535, -1.657e-3
0.534, -1.673e-3
0.533, -1.689e-3
0.532, -1.703e-3
0.531, -1.717e-3
0.530, -1.728e-3
0.529, -1.738e-3
0.528, -1.745e-3
0.527, -1.751e-3
0.526, -1.757e-3
0.525, -1.764e-3
0.524, -1.772e-3
0.523, -1.782e-3
0.522, -1.792e-3
0.521, -1.802e-3
0.520, -1.811e-3
0.519, -1.821e-3
0.518, -1.829e-3
0.517, -1.836e-3
0.516, -1.843e-3
0.515, -1.850e-3
0.514, -1.856e-3
0.513, -1.861e-3
0.512, -1.865e-3
0.511, -1.871e-3
0.510, -1.876e-3
0.509, -1.881e-3
0.508, -1.885e-3
0.507, -1.888e-3
0.506, -1.891e-3
0.505, -1.892e-3
0.504, -1.890e-3
0.503, -1.890e-3
0.502, -1.888e-3
0.501, -1.889e-3
0.500, -1.891e-3
0.499, -1.893e-3
0.498, -1.897e-3
0.497, -1.902e-3
0.496, -1.907e-3
0.495, -1.912e-3
0.494, -1.914e-3
0.493, -1.918e-3
0.492, -1.921e-3
0.491, -1.925e-3
0.490, -1.928e-3
0.489, -1.931e-3
0.488, -1.933e-3
0.487, -1.937e-3
0.486, -1.938e-3
0.485, -1.940e-3
0.484, -1.940e-3
0.483, -1.941e-3
0.482, -1.942e-3
0.481, -1.940e-3
0.480, -1.937e-3
0.479, -1.934e-3
0.478, -1.930e-3
0.477, -1.931e-3
0.476, -1.932e-3
0.475, -1.934e-3
0.474, -1.938e-3
0.473, -1.941e-3
0.472, -1.944e-3
0.471, -1.948e-3
