Nov. 23, 2024   18:42:39
Cyclic Voltammetry
File: d:\yx\20241123\6-3\cv-60.bin
Data Source:  Experiment
Instrument Model:  CHI660E
Header: 
Note: 

Init E (V) = 0.47
High E (V) = 0.57
Low E (V) = 0.47
Init P/N = P
Scan Rate (V/s) = 0.06
Segment = 10
Sample Interval (V) = 0.001
Quiet Time (sec) = 2
Sensitivity (A/V) = 0.001

Results:

Channel 1:
Segment 1:

Segment 2:

Segment 3:

Segment 4:

Segment 5:

Segment 6:

Segment 7:

Segment 8:

Segment 9:

Segment 10:

Potential/V, Current/A

0.470, 6.377e-5
0.471, 2.355e-4
0.472, 3.746e-4
0.473, 4.890e-4
0.474, 5.850e-4
0.475, 6.651e-4
0.476, 7.312e-4
0.477, 7.855e-4
0.478, 8.312e-4
0.479, 8.695e-4
0.480, 9.014e-4
0.481, 9.273e-4
0.482, 9.490e-4
0.483, 9.701e-4
0.484, 9.935e-4
0.485, 1.016e-3
0.486, 1.037e-3
0.487, 1.055e-3
0.488, 1.071e-3
0.489, 1.086e-3
0.490, 1.098e-3
0.491, 1.110e-3
0.492, 1.121e-3
0.493, 1.128e-3
0.494, 1.132e-3
0.495, 1.132e-3
0.496, 1.131e-3
0.497, 1.133e-3
0.498, 1.142e-3
0.499, 1.153e-3
0.500, 1.163e-3
0.501, 1.170e-3
0.502, 1.177e-3
0.503, 1.185e-3
0.504, 1.189e-3
0.505, 1.195e-3
0.506, 1.199e-3
0.507, 1.200e-3
0.508, 1.200e-3
0.509, 1.197e-3
0.510, 1.194e-3
0.511, 1.192e-3
0.512, 1.195e-3
0.513, 1.202e-3
0.514, 1.209e-3
0.515, 1.213e-3
0.516, 1.218e-3
0.517, 1.223e-3
0.518, 1.226e-3
0.519, 1.227e-3
0.520, 1.230e-3
0.521, 1.232e-3
0.522, 1.233e-3
0.523, 1.231e-3
0.524, 1.226e-3
0.525, 1.223e-3
0.526, 1.224e-3
0.527, 1.229e-3
0.528, 1.234e-3
0.529, 1.239e-3
0.530, 1.242e-3
0.531, 1.247e-3
0.532, 1.252e-3
0.533, 1.253e-3
0.534, 1.255e-3
0.535, 1.255e-3
0.536, 1.253e-3
0.537, 1.251e-3
0.538, 1.246e-3
0.539, 1.240e-3
0.540, 1.239e-3
0.541, 1.243e-3
0.542, 1.251e-3
0.543, 1.256e-3
0.544, 1.259e-3
0.545, 1.263e-3
0.546, 1.266e-3
0.547, 1.268e-3
0.548, 1.270e-3
0.549, 1.270e-3
0.550, 1.271e-3
0.551, 1.269e-3
0.552, 1.265e-3
0.553, 1.260e-3
0.554, 1.257e-3
0.555, 1.256e-3
0.556, 1.260e-3
0.557, 1.266e-3
0.558, 1.270e-3
0.559, 1.274e-3
0.560, 1.278e-3
0.561, 1.280e-3
0.562, 1.282e-3
0.563, 1.285e-3
0.564, 1.285e-3
0.565, 1.283e-3
0.566, 1.278e-3
0.567, 1.272e-3
0.568, 1.266e-3
0.569, 1.266e-3
0.570, 1.141e-3
0.569, 8.040e-4
0.568, 5.252e-4
0.567, 2.969e-4
0.566, 1.105e-4
0.565, -4.582e-5
0.564, -1.800e-4
0.563, -2.974e-4
0.562, -3.984e-4
0.561, -4.858e-4
0.560, -5.631e-4
0.559, -6.324e-4
0.558, -6.917e-4
0.557, -7.426e-4
0.556, -7.852e-4
0.555, -8.205e-4
0.554, -8.527e-4
0.553, -8.799e-4
0.552, -9.003e-4
0.551, -9.196e-4
0.550, -9.388e-4
0.549, -9.586e-4
0.548, -9.784e-4
0.547, -9.962e-4
0.546, -1.012e-3
0.545, -1.028e-3
0.544, -1.042e-3
0.543, -1.055e-3
0.542, -1.066e-3
0.541, -1.076e-3
0.540, -1.083e-3
0.539, -1.089e-3
0.538, -1.090e-3
0.537, -1.090e-3
0.536, -1.091e-3
0.535, -1.097e-3
0.534, -1.104e-3
0.533, -1.112e-3
0.532, -1.119e-3
0.531, -1.125e-3
0.530, -1.133e-3
0.529, -1.140e-3
0.528, -1.144e-3
0.527, -1.147e-3
0.526, -1.148e-3
0.525, -1.148e-3
0.524, -1.146e-3
0.523, -1.141e-3
0.522, -1.139e-3
0.521, -1.142e-3
0.520, -1.146e-3
0.519, -1.152e-3
0.518, -1.155e-3
0.517, -1.159e-3
0.516, -1.164e-3
0.515, -1.167e-3
0.514, -1.171e-3
0.513, -1.173e-3
0.512, -1.174e-3
0.511, -1.175e-3
0.510, -1.170e-3
0.509, -1.165e-3
0.508, -1.160e-3
0.507, -1.158e-3
0.506, -1.162e-3
0.505, -1.168e-3
0.504, -1.171e-3
0.503, -1.175e-3
0.502, -1.177e-3
0.501, -1.180e-3
0.500, -1.182e-3
0.499, -1.185e-3
0.498, -1.187e-3
0.497, -1.187e-3
0.496, -1.186e-3
0.495, -1.181e-3
0.494, -1.174e-3
0.493, -1.172e-3
0.492, -1.173e-3
0.491, -1.176e-3
0.490, -1.181e-3
0.489, -1.184e-3
0.488, -1.186e-3
0.487, -1.190e-3
0.486, -1.190e-3
0.485, -1.193e-3
0.484, -1.196e-3
0.483, -1.195e-3
0.482, -1.195e-3
0.481, -1.190e-3
0.480, -1.184e-3
0.479, -1.180e-3
0.478, -1.179e-3
0.477, -1.182e-3
0.476, -1.187e-3
0.475, -1.189e-3
0.474, -1.192e-3
0.473, -1.195e-3
0.472, -1.198e-3
0.471, -1.200e-3
0.470, -1.072e-3
0.471, -7.344e-4
0.472, -4.584e-4
0.473, -2.314e-4
0.474, -4.195e-5
0.475, 1.152e-4
0.476, 2.458e-4
0.477, 3.552e-4
0.478, 4.478e-4
0.479, 5.270e-4
0.480, 5.944e-4
0.481, 6.510e-4
0.482, 6.986e-4
0.483, 7.421e-4
0.484, 7.843e-4
0.485, 8.235e-4
0.486, 8.599e-4
0.487, 8.914e-4
0.488, 9.197e-4
0.489, 9.467e-4
0.490, 9.689e-4
0.491, 9.876e-4
0.492, 1.006e-3
0.493, 1.020e-3
0.494, 1.034e-3
0.495, 1.043e-3
0.496, 1.048e-3
0.497, 1.055e-3
0.498, 1.065e-3
0.499, 1.077e-3
0.500, 1.089e-3
0.501, 1.099e-3
0.502, 1.109e-3
0.503, 1.120e-3
0.504, 1.128e-3
0.505, 1.134e-3
0.506, 1.140e-3
0.507, 1.144e-3
0.508, 1.148e-3
0.509, 1.148e-3
0.510, 1.146e-3
0.511, 1.145e-3
0.512, 1.148e-3
0.513, 1.157e-3
0.514, 1.167e-3
0.515, 1.174e-3
0.516, 1.180e-3
0.517, 1.187e-3
0.518, 1.192e-3
0.519, 1.196e-3
0.520, 1.198e-3
0.521, 1.199e-3
0.522, 1.199e-3
0.523, 1.195e-3
0.524, 1.192e-3
0.525, 1.190e-3
0.526, 1.194e-3
0.527, 1.202e-3
0.528, 1.209e-3
0.529, 1.214e-3
0.530, 1.217e-3
0.531, 1.222e-3
0.532, 1.225e-3
0.533, 1.225e-3
0.534, 1.228e-3
0.535, 1.229e-3
0.536, 1.227e-3
0.537, 1.223e-3
0.538, 1.218e-3
0.539, 1.217e-3
0.540, 1.222e-3
0.541, 1.227e-3
0.542, 1.232e-3
0.543, 1.235e-3
0.544, 1.239e-3
0.545, 1.243e-3
0.546, 1.244e-3
0.547, 1.246e-3
0.548, 1.250e-3
0.549, 1.250e-3
0.550, 1.247e-3
0.551, 1.241e-3
0.552, 1.234e-3
0.553, 1.234e-3
0.554, 1.239e-3
0.555, 1.247e-3
0.556, 1.253e-3
0.557, 1.258e-3
0.558, 1.262e-3
0.559, 1.264e-3
0.560, 1.264e-3
0.561, 1.266e-3
0.562, 1.266e-3
0.563, 1.265e-3
0.564, 1.261e-3
0.565, 1.254e-3
0.566, 1.251e-3
0.567, 1.254e-3
0.568, 1.258e-3
0.569, 1.265e-3
0.570, 1.138e-3
0.569, 8.001e-4
0.568, 5.225e-4
0.567, 2.934e-4
0.566, 1.033e-4
0.565, -5.845e-5
0.564, -1.968e-4
0.563, -3.177e-4
0.562, -4.209e-4
0.561, -5.077e-4
0.560, -5.815e-4
0.559, -6.447e-4
0.558, -6.976e-4
0.557, -7.445e-4
0.556, -7.823e-4
0.555, -8.136e-4
0.554, -8.441e-4
0.553, -8.736e-4
0.552, -9.023e-4
0.551, -9.303e-4
0.550, -9.556e-4
0.549, -9.785e-4
0.548, -9.976e-4
0.547, -1.014e-3
0.546, -1.028e-3
0.545, -1.039e-3
0.544, -1.049e-3
0.543, -1.055e-3
0.542, -1.056e-3
0.541, -1.060e-3
0.540, -1.069e-3
0.539, -1.079e-3
0.538, -1.090e-3
0.537, -1.100e-3
0.536, -1.109e-3
0.535, -1.117e-3
0.534, -1.121e-3
0.533, -1.126e-3
0.532, -1.130e-3
0.531, -1.133e-3
0.530, -1.133e-3
0.529, -1.129e-3
0.528, -1.127e-3
0.527, -1.131e-3
0.526, -1.136e-3
0.525, -1.143e-3
0.524, -1.148e-3
0.523, -1.153e-3
0.522, -1.157e-3
0.521, -1.161e-3
0.520, -1.164e-3
0.519, -1.166e-3
0.518, -1.166e-3
0.517, -1.161e-3
0.516, -1.155e-3
0.515, -1.151e-3
0.514, -1.153e-3
0.513, -1.156e-3
0.512, -1.163e-3
0.511, -1.169e-3
0.510, -1.173e-3
0.509, -1.178e-3
0.508, -1.180e-3
0.507, -1.180e-3
0.506, -1.180e-3
0.505, -1.178e-3
0.504, -1.174e-3
0.503, -1.169e-3
0.502, -1.164e-3
0.501, -1.165e-3
0.500, -1.169e-3
0.499, -1.175e-3
0.498, -1.181e-3
0.497, -1.187e-3
0.496, -1.191e-3
0.495, -1.192e-3
0.494, -1.190e-3
0.493, -1.189e-3
0.492, -1.188e-3
0.491, -1.183e-3
0.490, -1.177e-3
0.489, -1.174e-3
0.488, -1.176e-3
0.487, -1.180e-3
0.486, -1.185e-3
0.485, -1.189e-3
0.484, -1.194e-3
0.483, -1.197e-3
0.482, -1.197e-3
0.481, -1.197e-3
0.480, -1.196e-3
0.479, -1.196e-3
0.478, -1.191e-3
0.477, -1.185e-3
0.476, -1.181e-3
0.475, -1.182e-3
0.474, -1.188e-3
0.473, -1.193e-3
0.472, -1.198e-3
0.471, -1.202e-3
0.470, -1.074e-3
0.471, -7.365e-4
0.472, -4.630e-4
0.473, -2.376e-4
0.474, -5.073e-5
0.475, 1.066e-4
0.476, 2.416e-4
0.477, 3.522e-4
0.478, 4.455e-4
0.479, 5.249e-4
0.480, 5.924e-4
0.481, 6.500e-4
0.482, 6.973e-4
0.483, 7.381e-4
0.484, 7.782e-4
0.485, 8.186e-4
0.486, 8.570e-4
0.487, 8.910e-4
0.488, 9.202e-4
0.489, 9.483e-4
0.490, 9.699e-4
0.491, 9.869e-4
0.492, 1.004e-3
0.493, 1.018e-3
0.494, 1.028e-3
0.495, 1.035e-3
0.496, 1.041e-3
0.497, 1.051e-3
0.498, 1.064e-3
0.499, 1.078e-3
0.500, 1.092e-3
0.501, 1.103e-3
0.502, 1.113e-3
0.503, 1.120e-3
0.504, 1.124e-3
0.505, 1.131e-3
0.506, 1.138e-3
0.507, 1.142e-3
0.508, 1.143e-3
0.509, 1.140e-3
0.510, 1.139e-3
0.511, 1.145e-3
0.512, 1.155e-3
0.513, 1.166e-3
0.514, 1.172e-3
0.515, 1.178e-3
0.516, 1.183e-3
0.517, 1.185e-3
0.518, 1.189e-3
0.519, 1.192e-3
0.520, 1.192e-3
0.521, 1.190e-3
0.522, 1.186e-3
0.523, 1.184e-3
0.524, 1.187e-3
0.525, 1.194e-3
0.526, 1.201e-3
0.527, 1.207e-3
0.528, 1.211e-3
0.529, 1.216e-3
0.530, 1.220e-3
0.531, 1.223e-3
0.532, 1.226e-3
0.533, 1.224e-3
0.534, 1.220e-3
0.535, 1.214e-3
0.536, 1.208e-3
0.537, 1.210e-3
0.538, 1.218e-3
0.539, 1.226e-3
0.540, 1.233e-3
0.541, 1.238e-3
0.542, 1.242e-3
0.543, 1.244e-3
0.544, 1.244e-3
0.545, 1.246e-3
0.546, 1.245e-3
0.547, 1.242e-3
0.548, 1.236e-3
0.549, 1.230e-3
0.550, 1.229e-3
0.551, 1.234e-3
0.552, 1.240e-3
0.553, 1.246e-3
0.554, 1.250e-3
0.555, 1.254e-3
0.556, 1.258e-3
0.557, 1.259e-3
0.558, 1.260e-3
0.559, 1.261e-3
0.560, 1.259e-3
0.561, 1.255e-3
0.562, 1.248e-3
0.563, 1.245e-3
0.564, 1.247e-3
0.565, 1.251e-3
0.566, 1.258e-3
0.567, 1.264e-3
0.568, 1.268e-3
0.569, 1.273e-3
0.570, 1.143e-3
0.569, 8.005e-4
0.568, 5.194e-4
0.567, 2.876e-4
0.566, 9.462e-5
0.565, -6.941e-5
0.564, -2.087e-4
0.563, -3.259e-4
0.562, -4.236e-4
0.561, -5.061e-4
0.560, -5.775e-4
0.559, -6.371e-4
0.558, -6.858e-4
0.557, -7.302e-4
0.556, -7.730e-4
0.555, -8.125e-4
0.554, -8.504e-4
0.553, -8.840e-4
0.552, -9.122e-4
0.551, -9.391e-4
0.550, -9.619e-4
0.549, -9.828e-4
0.548, -9.998e-4
0.547, -1.012e-3
0.546, -1.022e-3
0.545, -1.028e-3
0.544, -1.033e-3
0.543, -1.044e-3
0.542, -1.055e-3
0.541, -1.068e-3
0.540, -1.079e-3
0.539, -1.087e-3
0.538, -1.097e-3
0.537, -1.105e-3
0.536, -1.113e-3
0.535, -1.119e-3
0.534, -1.122e-3
0.533, -1.124e-3
0.532, -1.122e-3
0.531, -1.118e-3
0.530, -1.118e-3
0.529, -1.124e-3
0.528, -1.132e-3
0.527, -1.138e-3
0.526, -1.143e-3
0.525, -1.148e-3
0.524, -1.153e-3
0.523, -1.156e-3
0.522, -1.160e-3
0.521, -1.163e-3
0.520, -1.162e-3
0.519, -1.158e-3
0.518, -1.152e-3
0.517, -1.149e-3
0.516, -1.150e-3
0.515, -1.155e-3
0.514, -1.162e-3
0.513, -1.168e-3
0.512, -1.171e-3
0.511, -1.174e-3
0.510, -1.176e-3
0.509, -1.179e-3
0.508, -1.180e-3
0.507, -1.178e-3
0.506, -1.174e-3
0.505, -1.167e-3
0.504, -1.164e-3
0.503, -1.165e-3
0.502, -1.168e-3
0.501, -1.173e-3
0.500, -1.178e-3
0.499, -1.182e-3
0.498, -1.187e-3
0.497, -1.188e-3
0.496, -1.189e-3
0.495, -1.189e-3
0.494, -1.187e-3
0.493, -1.183e-3
0.492, -1.177e-3
0.491, -1.172e-3
0.490, -1.173e-3
0.489, -1.177e-3
0.488, -1.184e-3
0.487, -1.191e-3
0.486, -1.196e-3
0.485, -1.195e-3
0.484, -1.193e-3
0.483, -1.193e-3
0.482, -1.195e-3
0.481, -1.195e-3
0.480, -1.191e-3
0.479, -1.185e-3
0.478, -1.179e-3
0.477, -1.179e-3
0.476, -1.183e-3
0.475, -1.189e-3
0.474, -1.195e-3
0.473, -1.199e-3
0.472, -1.200e-3
0.471, -1.202e-3
0.470, -1.074e-3
0.471, -7.366e-4
0.472, -4.591e-4
0.473, -2.305e-4
0.474, -4.175e-5
0.475, 1.138e-4
0.476, 2.427e-4
0.477, 3.499e-4
0.478, 4.401e-4
0.479, 5.163e-4
0.480, 5.811e-4
0.481, 6.393e-4
0.482, 6.911e-4
0.483, 7.399e-4
0.484, 7.863e-4
0.485, 8.278e-4
0.486, 8.665e-4
0.487, 9.004e-4
0.488, 9.261e-4
0.489, 9.474e-4
0.490, 9.657e-4
0.491, 9.804e-4
0.492, 9.924e-4
0.493, 1.002e-3
0.494, 1.013e-3
0.495, 1.028e-3
0.496, 1.045e-3
0.497, 1.063e-3
0.498, 1.078e-3
0.499, 1.090e-3
0.500, 1.100e-3
0.501, 1.108e-3
0.502, 1.114e-3
0.503, 1.118e-3
0.504, 1.118e-3
0.505, 1.118e-3
0.506, 1.120e-3
0.507, 1.123e-3
0.508, 1.130e-3
0.509, 1.139e-3
0.510, 1.150e-3
0.511, 1.160e-3
0.512, 1.168e-3
0.513, 1.174e-3
0.514, 1.177e-3
0.515, 1.176e-3
0.516, 1.176e-3
0.517, 1.174e-3
0.518, 1.174e-3
0.519, 1.175e-3
0.520, 1.176e-3
0.521, 1.181e-3
0.522, 1.187e-3
0.523, 1.194e-3
0.524, 1.201e-3
0.525, 1.207e-3
0.526, 1.211e-3
0.527, 1.214e-3
0.528, 1.215e-3
0.529, 1.212e-3
0.530, 1.208e-3
0.531, 1.204e-3
0.532, 1.203e-3
0.533, 1.204e-3
0.534, 1.208e-3
0.535, 1.214e-3
0.536, 1.220e-3
0.537, 1.228e-3
0.538, 1.234e-3
0.539, 1.237e-3
0.540, 1.239e-3
0.541, 1.237e-3
0.542, 1.233e-3
0.543, 1.228e-3
0.544, 1.223e-3
0.545, 1.223e-3
0.546, 1.227e-3
0.547, 1.232e-3
0.548, 1.238e-3
0.549, 1.242e-3
0.550, 1.246e-3
0.551, 1.248e-3
0.552, 1.249e-3
0.553, 1.250e-3
0.554, 1.249e-3
0.555, 1.245e-3
0.556, 1.243e-3
0.557, 1.243e-3
0.558, 1.244e-3
0.559, 1.245e-3
0.560, 1.247e-3
0.561, 1.253e-3
0.562, 1.258e-3
0.563, 1.265e-3
0.564, 1.269e-3
0.565, 1.270e-3
0.566, 1.269e-3
0.567, 1.265e-3
0.568, 1.258e-3
0.569, 1.254e-3
0.570, 1.123e-3
0.569, 7.823e-4
0.568, 5.048e-4
0.567, 2.795e-4
0.566, 9.484e-5
0.565, -5.922e-5
0.564, -1.904e-4
0.563, -3.057e-4
0.562, -4.052e-4
0.561, -4.922e-4
0.560, -5.707e-4
0.559, -6.402e-4
0.558, -7.001e-4
0.557, -7.512e-4
0.556, -7.934e-4
0.555, -8.277e-4
0.554, -8.573e-4
0.553, -8.813e-4
0.552, -9.017e-4
0.551, -9.217e-4
0.550, -9.436e-4
0.549, -9.662e-4
0.548, -9.873e-4
0.547, -1.006e-3
0.546, -1.024e-3
0.545, -1.041e-3
0.544, -1.055e-3
0.543, -1.066e-3
0.542, -1.072e-3
0.541, -1.074e-3
0.540, -1.075e-3
0.539, -1.075e-3
0.538, -1.079e-3
0.537, -1.087e-3
0.536, -1.096e-3
0.535, -1.108e-3
0.534, -1.118e-3
0.533, -1.128e-3
0.532, -1.136e-3
0.531, -1.140e-3
0.530, -1.143e-3
0.529, -1.142e-3
0.528, -1.138e-3
0.527, -1.135e-3
0.526, -1.132e-3
0.525, -1.135e-3
0.524, -1.140e-3
0.523, -1.144e-3
0.522, -1.149e-3
0.521, -1.155e-3
0.520, -1.161e-3
0.519, -1.167e-3
0.518, -1.168e-3
0.517, -1.168e-3
0.516, -1.167e-3
0.515, -1.163e-3
0.514, -1.162e-3
0.513, -1.161e-3
0.512, -1.161e-3
0.511, -1.161e-3
0.510, -1.161e-3
0.509, -1.165e-3
0.508, -1.171e-3
0.507, -1.177e-3
0.506, -1.184e-3
0.505, -1.187e-3
0.504, -1.185e-3
0.503, -1.181e-3
0.502, -1.176e-3
0.501, -1.171e-3
0.500, -1.170e-3
0.499, -1.171e-3
0.498, -1.173e-3
0.497, -1.175e-3
0.496, -1.180e-3
0.495, -1.185e-3
0.494, -1.189e-3
0.493, -1.192e-3
0.492, -1.192e-3
0.491, -1.189e-3
0.490, -1.187e-3
0.489, -1.183e-3
0.488, -1.179e-3
0.487, -1.178e-3
0.486, -1.178e-3
0.485, -1.181e-3
0.484, -1.185e-3
0.483, -1.188e-3
0.482, -1.192e-3
0.481, -1.196e-3
0.480, -1.200e-3
0.479, -1.203e-3
0.478, -1.201e-3
0.477, -1.195e-3
0.476, -1.190e-3
0.475, -1.184e-3
0.474, -1.182e-3
0.473, -1.182e-3
0.472, -1.185e-3
0.471, -1.190e-3
0.470, -1.068e-3
0.471, -7.381e-4
0.472, -4.686e-4
0.473, -2.463e-4
0.474, -6.202e-5
0.475, 9.439e-5
0.476, 2.282e-4
0.477, 3.419e-4
0.478, 4.410e-4
0.479, 5.249e-4
0.480, 5.955e-4
0.481, 6.566e-4
0.482, 7.063e-4
0.483, 7.482e-4
0.484, 7.852e-4
0.485, 8.163e-4
0.486, 8.473e-4
0.487, 8.781e-4
0.488, 9.067e-4
0.489, 9.351e-4
0.490, 9.609e-4
0.491, 9.832e-4
0.492, 1.002e-3
0.493, 1.019e-3
0.494, 1.035e-3
0.495, 1.046e-3
0.496, 1.052e-3
0.497, 1.057e-3
0.498, 1.062e-3
0.499, 1.068e-3
0.500, 1.077e-3
0.501, 1.089e-3
0.502, 1.103e-3
0.503, 1.115e-3
0.504, 1.126e-3
0.505, 1.135e-3
0.506, 1.141e-3
0.507, 1.144e-3
0.508, 1.145e-3
0.509, 1.145e-3
0.510, 1.146e-3
0.511, 1.147e-3
0.512, 1.150e-3
0.513, 1.155e-3
0.514, 1.162e-3
0.515, 1.170e-3
0.516, 1.178e-3
0.517, 1.184e-3
0.518, 1.190e-3
0.519, 1.191e-3
0.520, 1.192e-3
0.521, 1.193e-3
0.522, 1.193e-3
0.523, 1.191e-3
0.524, 1.189e-3
0.525, 1.189e-3
0.526, 1.192e-3
0.527, 1.197e-3
0.528, 1.204e-3
0.529, 1.210e-3
0.530, 1.216e-3
0.531, 1.222e-3
0.532, 1.224e-3
0.533, 1.225e-3
0.534, 1.225e-3
0.535, 1.222e-3
0.536, 1.216e-3
0.537, 1.214e-3
0.538, 1.212e-3
0.539, 1.214e-3
0.540, 1.221e-3
0.541, 1.227e-3
0.542, 1.233e-3
0.543, 1.239e-3
0.544, 1.242e-3
0.545, 1.245e-3
0.546, 1.247e-3
0.547, 1.246e-3
0.548, 1.242e-3
0.549, 1.235e-3
0.550, 1.228e-3
0.551, 1.224e-3
0.552, 1.226e-3
0.553, 1.235e-3
0.554, 1.242e-3
0.555, 1.247e-3
0.556, 1.253e-3
0.557, 1.256e-3
0.558, 1.259e-3
0.559, 1.261e-3
0.560, 1.259e-3
0.561, 1.257e-3
0.562, 1.252e-3
0.563, 1.245e-3
0.564, 1.241e-3
0.565, 1.242e-3
0.566, 1.250e-3
0.567, 1.259e-3
0.568, 1.264e-3
0.569, 1.270e-3
0.570, 1.143e-3
0.569, 8.010e-4
0.568, 5.211e-4
0.567, 2.903e-4
0.566, 9.805e-5
0.565, -6.662e-5
0.564, -2.067e-4
0.563, -3.249e-4
0.562, -4.227e-4
0.561, -5.059e-4
0.560, -5.778e-4
0.559, -6.387e-4
0.558, -6.874e-4
0.557, -7.304e-4
0.556, -7.711e-4
0.555, -8.106e-4
0.554, -8.487e-4
0.553, -8.829e-4
0.552, -9.120e-4
0.551, -9.388e-4
0.550, -9.602e-4
0.549, -9.798e-4
0.548, -9.971e-4
0.547, -1.011e-3
0.546, -1.023e-3
0.545, -1.029e-3
0.544, -1.034e-3
0.543, -1.042e-3
0.542, -1.053e-3
0.541, -1.066e-3
0.540, -1.078e-3
0.539, -1.088e-3
0.538, -1.099e-3
0.537, -1.106e-3
0.536, -1.112e-3
0.535, -1.118e-3
0.534, -1.122e-3
0.533, -1.123e-3
0.532, -1.121e-3
0.531, -1.117e-3
0.530, -1.119e-3
0.529, -1.123e-3
0.528, -1.130e-3
0.527, -1.138e-3
0.526, -1.144e-3
0.525, -1.151e-3
0.524, -1.156e-3
0.523, -1.156e-3
0.522, -1.156e-3
0.521, -1.157e-3
0.520, -1.155e-3
0.519, -1.150e-3
0.518, -1.145e-3
0.517, -1.144e-3
0.516, -1.150e-3
0.515, -1.156e-3
0.514, -1.163e-3
0.513, -1.169e-3
0.512, -1.173e-3
0.511, -1.174e-3
0.510, -1.174e-3
0.509, -1.175e-3
0.508, -1.177e-3
0.507, -1.176e-3
0.506, -1.171e-3
0.505, -1.165e-3
0.504, -1.163e-3
0.503, -1.167e-3
0.502, -1.171e-3
0.501, -1.176e-3
0.500, -1.181e-3
0.499, -1.184e-3
0.498, -1.186e-3
0.497, -1.188e-3
0.496, -1.190e-3
0.495, -1.190e-3
0.494, -1.186e-3
0.493, -1.180e-3
0.492, -1.173e-3
0.491, -1.169e-3
0.490, -1.172e-3
0.489, -1.177e-3
0.488, -1.182e-3
0.487, -1.187e-3
0.486, -1.192e-3
0.485, -1.195e-3
0.484, -1.198e-3
0.483, -1.199e-3
0.482, -1.198e-3
0.481, -1.194e-3
0.480, -1.188e-3
0.479, -1.181e-3
0.478, -1.177e-3
0.477, -1.179e-3
0.476, -1.184e-3
0.475, -1.190e-3
0.474, -1.195e-3
0.473, -1.200e-3
0.472, -1.202e-3
0.471, -1.203e-3
