Nov. 23, 2024   18:42:56
Cyclic Voltammetry
File: d:\yx\20241123\6-3\cv-80.bin
Data Source:  Experiment
Instrument Model:  CHI660E
Header: 
Note: 

Init E (V) = 0.47
High E (V) = 0.57
Low E (V) = 0.47
Init P/N = P
Scan Rate (V/s) = 0.08
Segment = 10
Sample Interval (V) = 0.001
Quiet Time (sec) = 2
Sensitivity (A/V) = 0.001

Results:

Channel 1:
Segment 1:

Segment 2:

Segment 3:

Segment 4:

Segment 5:

Segment 6:

Segment 7:

Segment 8:

Segment 9:

Segment 10:

Potential/V, Current/A

0.470, 7.030e-5
0.471, 2.471e-4
0.472, 3.991e-4
0.473, 5.297e-4
0.474, 6.400e-4
0.475, 7.335e-4
0.476, 8.134e-4
0.477, 8.809e-4
0.478, 9.413e-4
0.479, 9.949e-4
0.480, 1.042e-3
0.481, 1.087e-3
0.482, 1.126e-3
0.483, 1.166e-3
0.484, 1.206e-3
0.485, 1.239e-3
0.486, 1.271e-3
0.487, 1.299e-3
0.488, 1.325e-3
0.489, 1.349e-3
0.490, 1.368e-3
0.491, 1.385e-3
0.492, 1.399e-3
0.493, 1.409e-3
0.494, 1.418e-3
0.495, 1.428e-3
0.496, 1.435e-3
0.497, 1.443e-3
0.498, 1.450e-3
0.499, 1.460e-3
0.500, 1.473e-3
0.501, 1.485e-3
0.502, 1.497e-3
0.503, 1.508e-3
0.504, 1.517e-3
0.505, 1.527e-3
0.506, 1.534e-3
0.507, 1.539e-3
0.508, 1.546e-3
0.509, 1.552e-3
0.510, 1.556e-3
0.511, 1.558e-3
0.512, 1.559e-3
0.513, 1.561e-3
0.514, 1.562e-3
0.515, 1.565e-3
0.516, 1.568e-3
0.517, 1.570e-3
0.518, 1.576e-3
0.519, 1.583e-3
0.520, 1.589e-3
0.521, 1.597e-3
0.522, 1.605e-3
0.523, 1.612e-3
0.524, 1.619e-3
0.525, 1.621e-3
0.526, 1.622e-3
0.527, 1.620e-3
0.528, 1.616e-3
0.529, 1.614e-3
0.530, 1.613e-3
0.531, 1.612e-3
0.532, 1.615e-3
0.533, 1.617e-3
0.534, 1.621e-3
0.535, 1.625e-3
0.536, 1.628e-3
0.537, 1.634e-3
0.538, 1.639e-3
0.539, 1.644e-3
0.540, 1.650e-3
0.541, 1.653e-3
0.542, 1.655e-3
0.543, 1.656e-3
0.544, 1.654e-3
0.545, 1.652e-3
0.546, 1.649e-3
0.547, 1.646e-3
0.548, 1.646e-3
0.549, 1.643e-3
0.550, 1.645e-3
0.551, 1.649e-3
0.552, 1.652e-3
0.553, 1.657e-3
0.554, 1.661e-3
0.555, 1.664e-3
0.556, 1.668e-3
0.557, 1.670e-3
0.558, 1.672e-3
0.559, 1.674e-3
0.560, 1.675e-3
0.561, 1.677e-3
0.562, 1.677e-3
0.563, 1.677e-3
0.564, 1.677e-3
0.565, 1.673e-3
0.566, 1.671e-3
0.567, 1.671e-3
0.568, 1.670e-3
0.569, 1.673e-3
0.570, 1.559e-3
0.569, 1.208e-3
0.568, 9.032e-4
0.567, 6.422e-4
0.566, 4.183e-4
0.565, 2.231e-4
0.564, 4.973e-5
0.563, -1.044e-4
0.562, -2.402e-4
0.561, -3.611e-4
0.560, -4.703e-4
0.559, -5.690e-4
0.558, -6.574e-4
0.557, -7.378e-4
0.556, -8.092e-4
0.555, -8.707e-4
0.554, -9.269e-4
0.553, -9.762e-4
0.552, -1.020e-3
0.551, -1.060e-3
0.550, -1.095e-3
0.549, -1.125e-3
0.548, -1.155e-3
0.547, -1.180e-3
0.546, -1.207e-3
0.545, -1.232e-3
0.544, -1.254e-3
0.543, -1.277e-3
0.542, -1.297e-3
0.541, -1.318e-3
0.540, -1.337e-3
0.539, -1.353e-3
0.538, -1.367e-3
0.537, -1.382e-3
0.536, -1.393e-3
0.535, -1.406e-3
0.534, -1.415e-3
0.533, -1.422e-3
0.532, -1.427e-3
0.531, -1.429e-3
0.530, -1.432e-3
0.529, -1.436e-3
0.528, -1.440e-3
0.527, -1.450e-3
0.526, -1.459e-3
0.525, -1.471e-3
0.524, -1.482e-3
0.523, -1.490e-3
0.522, -1.498e-3
0.521, -1.503e-3
0.520, -1.504e-3
0.519, -1.508e-3
0.518, -1.509e-3
0.517, -1.511e-3
0.516, -1.514e-3
0.515, -1.512e-3
0.514, -1.511e-3
0.513, -1.509e-3
0.512, -1.508e-3
0.511, -1.512e-3
0.510, -1.515e-3
0.509, -1.520e-3
0.508, -1.527e-3
0.507, -1.533e-3
0.506, -1.539e-3
0.505, -1.543e-3
0.504, -1.544e-3
0.503, -1.547e-3
0.502, -1.549e-3
0.501, -1.551e-3
0.500, -1.553e-3
0.499, -1.553e-3
0.498, -1.552e-3
0.497, -1.547e-3
0.496, -1.542e-3
0.495, -1.540e-3
0.494, -1.540e-3
0.493, -1.543e-3
0.492, -1.548e-3
0.491, -1.552e-3
0.490, -1.557e-3
0.489, -1.560e-3
0.488, -1.561e-3
0.487, -1.562e-3
0.486, -1.562e-3
0.485, -1.564e-3
0.484, -1.568e-3
0.483, -1.570e-3
0.482, -1.572e-3
0.481, -1.572e-3
0.480, -1.567e-3
0.479, -1.564e-3
0.478, -1.561e-3
0.477, -1.561e-3
0.476, -1.564e-3
0.475, -1.565e-3
0.474, -1.569e-3
0.473, -1.571e-3
0.472, -1.572e-3
0.471, -1.575e-3
0.470, -1.461e-3
0.471, -1.114e-3
0.472, -8.119e-4
0.473, -5.537e-4
0.474, -3.313e-4
0.475, -1.377e-4
0.476, 3.280e-5
0.477, 1.814e-4
0.478, 3.144e-4
0.479, 4.307e-4
0.480, 5.311e-4
0.481, 6.216e-4
0.482, 7.014e-4
0.483, 7.728e-4
0.484, 8.359e-4
0.485, 8.892e-4
0.486, 9.375e-4
0.487, 9.808e-4
0.488, 1.021e-3
0.489, 1.060e-3
0.490, 1.099e-3
0.491, 1.137e-3
0.492, 1.172e-3
0.493, 1.202e-3
0.494, 1.231e-3
0.495, 1.259e-3
0.496, 1.282e-3
0.497, 1.304e-3
0.498, 1.323e-3
0.499, 1.340e-3
0.500, 1.357e-3
0.501, 1.370e-3
0.502, 1.381e-3
0.503, 1.390e-3
0.504, 1.395e-3
0.505, 1.402e-3
0.506, 1.409e-3
0.507, 1.419e-3
0.508, 1.432e-3
0.509, 1.446e-3
0.510, 1.460e-3
0.511, 1.473e-3
0.512, 1.485e-3
0.513, 1.496e-3
0.514, 1.502e-3
0.515, 1.507e-3
0.516, 1.513e-3
0.517, 1.518e-3
0.518, 1.523e-3
0.519, 1.527e-3
0.520, 1.527e-3
0.521, 1.527e-3
0.522, 1.526e-3
0.523, 1.526e-3
0.524, 1.531e-3
0.525, 1.537e-3
0.526, 1.548e-3
0.527, 1.559e-3
0.528, 1.566e-3
0.529, 1.576e-3
0.530, 1.582e-3
0.531, 1.587e-3
0.532, 1.591e-3
0.533, 1.592e-3
0.534, 1.593e-3
0.535, 1.593e-3
0.536, 1.591e-3
0.537, 1.590e-3
0.538, 1.589e-3
0.539, 1.589e-3
0.540, 1.593e-3
0.541, 1.595e-3
0.542, 1.599e-3
0.543, 1.605e-3
0.544, 1.611e-3
0.545, 1.618e-3
0.546, 1.623e-3
0.547, 1.628e-3
0.548, 1.633e-3
0.549, 1.633e-3
0.550, 1.634e-3
0.551, 1.637e-3
0.552, 1.636e-3
0.553, 1.636e-3
0.554, 1.633e-3
0.555, 1.630e-3
0.556, 1.629e-3
0.557, 1.628e-3
0.558, 1.630e-3
0.559, 1.633e-3
0.560, 1.637e-3
0.561, 1.644e-3
0.562, 1.649e-3
0.563, 1.654e-3
0.564, 1.661e-3
0.565, 1.662e-3
0.566, 1.664e-3
0.567, 1.666e-3
0.568, 1.668e-3
0.569, 1.671e-3
0.570, 1.553e-3
0.569, 1.194e-3
0.568, 8.798e-4
0.567, 6.098e-4
0.566, 3.790e-4
0.565, 1.803e-4
0.564, 7.142e-6
0.563, -1.447e-4
0.562, -2.759e-4
0.561, -3.911e-4
0.560, -4.937e-4
0.559, -5.854e-4
0.558, -6.650e-4
0.557, -7.383e-4
0.556, -8.067e-4
0.555, -8.678e-4
0.554, -9.250e-4
0.553, -9.778e-4
0.552, -1.025e-3
0.551, -1.069e-3
0.550, -1.109e-3
0.549, -1.144e-3
0.548, -1.176e-3
0.547, -1.204e-3
0.546, -1.231e-3
0.545, -1.255e-3
0.544, -1.276e-3
0.543, -1.295e-3
0.542, -1.310e-3
0.541, -1.323e-3
0.540, -1.335e-3
0.539, -1.346e-3
0.538, -1.359e-3
0.537, -1.373e-3
0.536, -1.387e-3
0.535, -1.403e-3
0.534, -1.417e-3
0.533, -1.429e-3
0.532, -1.441e-3
0.531, -1.451e-3
0.530, -1.460e-3
0.529, -1.466e-3
0.528, -1.471e-3
0.527, -1.475e-3
0.526, -1.477e-3
0.525, -1.479e-3
0.524, -1.479e-3
0.523, -1.478e-3
0.522, -1.480e-3
0.521, -1.486e-3
0.520, -1.493e-3
0.519, -1.500e-3
0.518, -1.506e-3
0.517, -1.512e-3
0.516, -1.519e-3
0.515, -1.524e-3
0.514, -1.530e-3
0.513, -1.533e-3
0.512, -1.534e-3
0.511, -1.536e-3
0.510, -1.538e-3
0.509, -1.540e-3
0.508, -1.541e-3
0.507, -1.537e-3
0.506, -1.533e-3
0.505, -1.530e-3
0.504, -1.528e-3
0.503, -1.532e-3
0.502, -1.537e-3
0.501, -1.543e-3
0.500, -1.549e-3
0.499, -1.551e-3
0.498, -1.554e-3
0.497, -1.557e-3
0.496, -1.559e-3
0.495, -1.563e-3
0.494, -1.564e-3
0.493, -1.566e-3
0.492, -1.568e-3
0.491, -1.567e-3
0.490, -1.566e-3
0.489, -1.564e-3
0.488, -1.560e-3
0.487, -1.557e-3
0.486, -1.554e-3
0.485, -1.554e-3
0.484, -1.557e-3
0.483, -1.561e-3
0.482, -1.566e-3
0.481, -1.569e-3
0.480, -1.571e-3
0.479, -1.575e-3
0.478, -1.576e-3
0.477, -1.577e-3
0.476, -1.580e-3
0.475, -1.581e-3
0.474, -1.583e-3
0.473, -1.583e-3
0.472, -1.579e-3
0.471, -1.575e-3
0.470, -1.452e-3
0.471, -1.096e-3
0.472, -7.936e-4
0.473, -5.371e-4
0.474, -3.188e-4
0.475, -1.296e-4
0.476, 3.624e-5
0.477, 1.786e-4
0.478, 3.031e-4
0.479, 4.120e-4
0.480, 5.082e-4
0.481, 5.972e-4
0.482, 6.790e-4
0.483, 7.549e-4
0.484, 8.263e-4
0.485, 8.871e-4
0.486, 9.427e-4
0.487, 9.933e-4
0.488, 1.039e-3
0.489, 1.080e-3
0.490, 1.116e-3
0.491, 1.150e-3
0.492, 1.182e-3
0.493, 1.208e-3
0.494, 1.232e-3
0.495, 1.253e-3
0.496, 1.269e-3
0.497, 1.284e-3
0.498, 1.298e-3
0.499, 1.314e-3
0.500, 1.336e-3
0.501, 1.356e-3
0.502, 1.376e-3
0.503, 1.392e-3
0.504, 1.405e-3
0.505, 1.419e-3
0.506, 1.431e-3
0.507, 1.440e-3
0.508, 1.450e-3
0.509, 1.458e-3
0.510, 1.467e-3
0.511, 1.475e-3
0.512, 1.480e-3
0.513, 1.485e-3
0.514, 1.487e-3
0.515, 1.488e-3
0.516, 1.492e-3
0.517, 1.495e-3
0.518, 1.503e-3
0.519, 1.514e-3
0.520, 1.524e-3
0.521, 1.533e-3
0.522, 1.540e-3
0.523, 1.546e-3
0.524, 1.553e-3
0.525, 1.556e-3
0.526, 1.560e-3
0.527, 1.565e-3
0.528, 1.569e-3
0.529, 1.574e-3
0.530, 1.576e-3
0.531, 1.577e-3
0.532, 1.577e-3
0.533, 1.575e-3
0.534, 1.574e-3
0.535, 1.576e-3
0.536, 1.578e-3
0.537, 1.585e-3
0.538, 1.592e-3
0.539, 1.597e-3
0.540, 1.602e-3
0.541, 1.606e-3
0.542, 1.612e-3
0.543, 1.616e-3
0.544, 1.619e-3
0.545, 1.624e-3
0.546, 1.626e-3
0.547, 1.626e-3
0.548, 1.626e-3
0.549, 1.623e-3
0.550, 1.620e-3
0.551, 1.617e-3
0.552, 1.613e-3
0.553, 1.614e-3
0.554, 1.617e-3
0.555, 1.624e-3
0.556, 1.632e-3
0.557, 1.638e-3
0.558, 1.642e-3
0.559, 1.647e-3
0.560, 1.650e-3
0.561, 1.653e-3
0.562, 1.653e-3
0.563, 1.654e-3
0.564, 1.658e-3
0.565, 1.659e-3
0.566, 1.661e-3
0.567, 1.661e-3
0.568, 1.657e-3
0.569, 1.653e-3
0.570, 1.531e-3
0.569, 1.172e-3
0.568, 8.639e-4
0.567, 6.020e-4
0.566, 3.783e-4
0.565, 1.830e-4
0.564, 1.141e-5
0.563, -1.387e-4
0.562, -2.686e-4
0.561, -3.834e-4
0.560, -4.867e-4
0.559, -5.823e-4
0.558, -6.672e-4
0.557, -7.440e-4
0.556, -8.144e-4
0.555, -8.762e-4
0.554, -9.339e-4
0.553, -9.863e-4
0.552, -1.033e-3
0.551, -1.076e-3
0.550, -1.115e-3
0.549, -1.149e-3
0.548, -1.180e-3
0.547, -1.206e-3
0.546, -1.231e-3
0.545, -1.251e-3
0.544, -1.267e-3
0.543, -1.282e-3
0.542, -1.296e-3
0.541, -1.312e-3
0.540, -1.332e-3
0.539, -1.350e-3
0.538, -1.368e-3
0.537, -1.384e-3
0.536, -1.396e-3
0.535, -1.410e-3
0.534, -1.422e-3
0.533, -1.433e-3
0.532, -1.443e-3
0.531, -1.451e-3
0.530, -1.458e-3
0.529, -1.464e-3
0.528, -1.468e-3
0.527, -1.472e-3
0.526, -1.472e-3
0.525, -1.471e-3
0.524, -1.474e-3
0.523, -1.477e-3
0.522, -1.485e-3
0.521, -1.493e-3
0.520, -1.500e-3
0.519, -1.507e-3
0.518, -1.512e-3
0.517, -1.515e-3
0.516, -1.519e-3
0.515, -1.521e-3
0.514, -1.525e-3
0.513, -1.529e-3
0.512, -1.534e-3
0.511, -1.538e-3
0.510, -1.540e-3
0.509, -1.540e-3
0.508, -1.538e-3
0.507, -1.532e-3
0.506, -1.529e-3
0.505, -1.527e-3
0.504, -1.529e-3
0.503, -1.535e-3
0.502, -1.540e-3
0.501, -1.544e-3
0.500, -1.549e-3
0.499, -1.552e-3
0.498, -1.555e-3
0.497, -1.557e-3
0.496, -1.558e-3
0.495, -1.561e-3
0.494, -1.563e-3
0.493, -1.565e-3
0.492, -1.567e-3
0.491, -1.566e-3
0.490, -1.563e-3
0.489, -1.558e-3
0.488, -1.554e-3
0.487, -1.553e-3
0.486, -1.555e-3
0.485, -1.557e-3
0.484, -1.561e-3
0.483, -1.564e-3
0.482, -1.567e-3
0.481, -1.570e-3
0.480, -1.573e-3
0.479, -1.576e-3
0.478, -1.576e-3
0.477, -1.576e-3
0.476, -1.578e-3
0.475, -1.577e-3
0.474, -1.579e-3
0.473, -1.580e-3
0.472, -1.578e-3
0.471, -1.576e-3
0.470, -1.456e-3
0.471, -1.099e-3
0.472, -7.938e-4
0.473, -5.346e-4
0.474, -3.143e-4
0.475, -1.250e-4
0.476, 4.060e-5
0.477, 1.843e-4
0.478, 3.101e-4
0.479, 4.199e-4
0.480, 5.160e-4
0.481, 6.045e-4
0.482, 6.840e-4
0.483, 7.573e-4
0.484, 8.260e-4
0.485, 8.864e-4
0.486, 9.426e-4
0.487, 9.926e-4
0.488, 1.038e-3
0.489, 1.080e-3
0.490, 1.117e-3
0.491, 1.149e-3
0.492, 1.182e-3
0.493, 1.210e-3
0.494, 1.236e-3
0.495, 1.258e-3
0.496, 1.277e-3
0.497, 1.294e-3
0.498, 1.305e-3
0.499, 1.318e-3
0.500, 1.333e-3
0.501, 1.348e-3
0.502, 1.366e-3
0.503, 1.384e-3
0.504, 1.399e-3
0.505, 1.413e-3
0.506, 1.426e-3
0.507, 1.438e-3
0.508, 1.450e-3
0.509, 1.459e-3
0.510, 1.467e-3
0.511, 1.475e-3
0.512, 1.482e-3
0.513, 1.489e-3
0.514, 1.495e-3
0.515, 1.498e-3
0.516, 1.500e-3
0.517, 1.499e-3
0.518, 1.502e-3
0.519, 1.508e-3
0.520, 1.514e-3
0.521, 1.525e-3
0.522, 1.535e-3
0.523, 1.542e-3
0.524, 1.549e-3
0.525, 1.554e-3
0.526, 1.559e-3
0.527, 1.564e-3
0.528, 1.565e-3
0.529, 1.569e-3
0.530, 1.572e-3
0.531, 1.576e-3
0.532, 1.581e-3
0.533, 1.581e-3
0.534, 1.580e-3
0.535, 1.578e-3
0.536, 1.574e-3
0.537, 1.575e-3
0.538, 1.580e-3
0.539, 1.586e-3
0.540, 1.595e-3
0.541, 1.600e-3
0.542, 1.605e-3
0.543, 1.609e-3
0.544, 1.613e-3
0.545, 1.618e-3
0.546, 1.621e-3
0.547, 1.624e-3
0.548, 1.629e-3
0.549, 1.630e-3
0.550, 1.631e-3
0.551, 1.632e-3
0.552, 1.629e-3
0.553, 1.626e-3
0.554, 1.623e-3
0.555, 1.620e-3
0.556, 1.622e-3
0.557, 1.626e-3
0.558, 1.632e-3
0.559, 1.639e-3
0.560, 1.643e-3
0.561, 1.647e-3
0.562, 1.650e-3
0.563, 1.654e-3
0.564, 1.657e-3
0.565, 1.657e-3
0.566, 1.659e-3
0.567, 1.662e-3
0.568, 1.663e-3
0.569, 1.664e-3
0.570, 1.545e-3
0.569, 1.184e-3
0.568, 8.691e-4
0.567, 5.994e-4
0.566, 3.698e-4
0.565, 1.727e-4
0.564, 8.619e-7
0.563, -1.500e-4
0.562, -2.817e-4
0.561, -3.988e-4
0.560, -5.013e-4
0.559, -5.911e-4
0.558, -6.704e-4
0.557, -7.424e-4
0.556, -8.095e-4
0.555, -8.702e-4
0.554, -9.276e-4
0.553, -9.801e-4
0.552, -1.027e-3
0.551, -1.070e-3
0.550, -1.110e-3
0.549, -1.145e-3
0.548, -1.179e-3
0.547, -1.207e-3
0.546, -1.234e-3
0.545, -1.259e-3
0.544, -1.281e-3
0.543, -1.300e-3
0.542, -1.317e-3
0.541, -1.330e-3
0.540, -1.341e-3
0.539, -1.350e-3
0.538, -1.360e-3
0.537, -1.373e-3
0.536, -1.385e-3
0.535, -1.400e-3
0.534, -1.413e-3
0.533, -1.424e-3
0.532, -1.435e-3
0.531, -1.445e-3
0.530, -1.455e-3
0.529, -1.463e-3
0.528, -1.469e-3
0.527, -1.476e-3
0.526, -1.481e-3
0.525, -1.485e-3
0.524, -1.490e-3
0.523, -1.493e-3
0.522, -1.494e-3
0.521, -1.493e-3
0.520, -1.492e-3
0.519, -1.494e-3
0.518, -1.498e-3
0.517, -1.504e-3
0.516, -1.511e-3
0.515, -1.516e-3
0.514, -1.521e-3
0.513, -1.526e-3
0.512, -1.530e-3
0.511, -1.535e-3
0.510, -1.538e-3
0.509, -1.540e-3
0.508, -1.542e-3
0.507, -1.543e-3
0.506, -1.546e-3
0.505, -1.547e-3
0.504, -1.548e-3
0.503, -1.547e-3
0.502, -1.543e-3
0.501, -1.540e-3
0.500, -1.538e-3
0.499, -1.537e-3
0.498, -1.538e-3
0.497, -1.542e-3
0.496, -1.546e-3
0.495, -1.550e-3
0.494, -1.554e-3
0.493, -1.559e-3
0.492, -1.563e-3
0.491, -1.565e-3
0.490, -1.566e-3
0.489, -1.567e-3
0.488, -1.567e-3
0.487, -1.569e-3
0.486, -1.570e-3
0.485, -1.570e-3
0.484, -1.568e-3
0.483, -1.564e-3
0.482, -1.561e-3
0.481, -1.558e-3
0.480, -1.557e-3
0.479, -1.559e-3
0.478, -1.562e-3
0.477, -1.566e-3
0.476, -1.570e-3
0.475, -1.571e-3
0.474, -1.574e-3
0.473, -1.578e-3
0.472, -1.580e-3
0.471, -1.581e-3
0.470, -1.466e-3
0.471, -1.115e-3
0.472, -8.112e-4
0.473, -5.502e-4
0.474, -3.265e-4
0.475, -1.330e-4
0.476, 3.819e-5
0.477, 1.874e-4
0.478, 3.171e-4
0.479, 4.313e-4
0.480, 5.312e-4
0.481, 6.219e-4
0.482, 7.011e-4
0.483, 7.721e-4
0.484, 8.357e-4
0.485, 8.902e-4
0.486, 9.390e-4
0.487, 9.832e-4
0.488, 1.023e-3
0.489, 1.063e-3
0.490, 1.101e-3
0.491, 1.137e-3
0.492, 1.171e-3
0.493, 1.201e-3
0.494, 1.228e-3
0.495, 1.254e-3
0.496, 1.278e-3
0.497, 1.300e-3
0.498, 1.319e-3
0.499, 1.337e-3
0.500, 1.354e-3
0.501, 1.368e-3
0.502, 1.382e-3
0.503, 1.395e-3
0.504, 1.403e-3
0.505, 1.410e-3
0.506, 1.417e-3
0.507, 1.423e-3
0.508, 1.431e-3
0.509, 1.440e-3
0.510, 1.452e-3
0.511, 1.465e-3
0.512, 1.475e-3
0.513, 1.485e-3
0.514, 1.492e-3
0.515, 1.500e-3
0.516, 1.509e-3
0.517, 1.515e-3
0.518, 1.521e-3
0.519, 1.528e-3
0.520, 1.532e-3
0.521, 1.536e-3
0.522, 1.539e-3
0.523, 1.540e-3
0.524, 1.541e-3
0.525, 1.540e-3
0.526, 1.541e-3
0.527, 1.545e-3
0.528, 1.548e-3
0.529, 1.556e-3
0.530, 1.563e-3
0.531, 1.570e-3
0.532, 1.576e-3
0.533, 1.579e-3
0.534, 1.585e-3
0.535, 1.590e-3
0.536, 1.592e-3
0.537, 1.596e-3
0.538, 1.600e-3
0.539, 1.603e-3
0.540, 1.606e-3
0.541, 1.607e-3
0.542, 1.607e-3
0.543, 1.605e-3
0.544, 1.602e-3
0.545, 1.600e-3
0.546, 1.600e-3
0.547, 1.602e-3
0.548, 1.608e-3
0.549, 1.615e-3
0.550, 1.620e-3
0.551, 1.625e-3
0.552, 1.627e-3
0.553, 1.631e-3
0.554, 1.635e-3
0.555, 1.638e-3
0.556, 1.641e-3
0.557, 1.643e-3
0.558, 1.645e-3
0.559, 1.647e-3
0.560, 1.648e-3
0.561, 1.648e-3
0.562, 1.645e-3
0.563, 1.643e-3
0.564, 1.640e-3
0.565, 1.636e-3
0.566, 1.637e-3
0.567, 1.643e-3
0.568, 1.648e-3
0.569, 1.654e-3
0.570, 1.539e-3
0.569, 1.184e-3
0.568, 8.756e-4
0.567, 6.127e-4
0.566, 3.867e-4
0.565, 1.900e-4
0.564, 1.653e-5
0.563, -1.374e-4
0.562, -2.731e-4
0.561, -3.928e-4
0.560, -4.993e-4
0.559, -5.960e-4
0.558, -6.823e-4
0.557, -7.596e-4
0.556, -8.291e-4
0.555, -8.897e-4
0.554, -9.454e-4
0.553, -9.947e-4
0.552, -1.038e-3
0.551, -1.079e-3
0.550, -1.112e-3
0.549, -1.141e-3
0.548, -1.167e-3
0.547, -1.192e-3
0.546, -1.217e-3
0.545, -1.241e-3
0.544, -1.265e-3
0.543, -1.288e-3
0.542, -1.308e-3
0.541, -1.327e-3
0.540, -1.345e-3
0.539, -1.362e-3
0.538, -1.377e-3
0.537, -1.391e-3
0.536, -1.403e-3
0.535, -1.414e-3
0.534, -1.424e-3
0.533, -1.431e-3
0.532, -1.439e-3
0.531, -1.443e-3
0.530, -1.445e-3
0.529, -1.448e-3
0.528, -1.452e-3
0.527, -1.459e-3
0.526, -1.467e-3
0.525, -1.474e-3
0.524, -1.482e-3
0.523, -1.487e-3
0.522, -1.493e-3
0.521, -1.498e-3
0.520, -1.503e-3
0.519, -1.508e-3
0.518, -1.513e-3
0.517, -1.518e-3
0.516, -1.523e-3
0.515, -1.526e-3
0.514, -1.530e-3
0.513, -1.532e-3
0.512, -1.531e-3
0.511, -1.529e-3
0.510, -1.524e-3
0.509, -1.522e-3
0.508, -1.523e-3
0.507, -1.525e-3
0.506, -1.530e-3
0.505, -1.535e-3
0.504, -1.538e-3
0.503, -1.541e-3
0.502, -1.544e-3
0.501, -1.548e-3
0.500, -1.552e-3
0.499, -1.554e-3
0.498, -1.557e-3
0.497, -1.560e-3
0.496, -1.561e-3
0.495, -1.563e-3
0.494, -1.563e-3
0.493, -1.561e-3
0.492, -1.558e-3
0.491, -1.553e-3
0.490, -1.550e-3
0.489, -1.550e-3
0.488, -1.550e-3
0.487, -1.554e-3
0.486, -1.558e-3
0.485, -1.561e-3
0.484, -1.565e-3
0.483, -1.567e-3
0.482, -1.571e-3
0.481, -1.574e-3
0.480, -1.576e-3
0.479, -1.578e-3
0.478, -1.579e-3
0.477, -1.579e-3
0.476, -1.580e-3
0.475, -1.578e-3
0.474, -1.577e-3
0.473, -1.574e-3
0.472, -1.568e-3
0.471, -1.565e-3
