Nov. 23, 2024   17:53:39
Cyclic Voltammetry
File: d:\yx\20241123\6-2\cv-100.bin
Data Source:  Experiment
Instrument Model:  CHI660E
Header: 
Note: 

Init E (V) = 0.47
High E (V) = 0.57
Low E (V) = 0.47
Init P/N = P
Scan Rate (V/s) = 0.1
Segment = 10
Sample Interval (V) = 0.001
Quiet Time (sec) = 2
Sensitivity (A/V) = 0.001

Results:

Channel 1:
Segment 1:

Segment 2:

Segment 3:

Segment 4:

Segment 5:

Segment 6:

Segment 7:

Segment 8:

Segment 9:

Segment 10:

Potential/V, Current/A

0.470, 4.874e-5
0.471, 2.098e-4
0.472, 3.416e-4
0.473, 4.534e-4
0.474, 5.453e-4
0.475, 6.264e-4
0.476, 6.971e-4
0.477, 7.600e-4
0.478, 8.159e-4
0.479, 8.664e-4
0.480, 9.109e-4
0.481, 9.523e-4
0.482, 9.887e-4
0.483, 1.023e-3
0.484, 1.054e-3
0.485, 1.083e-3
0.486, 1.108e-3
0.487, 1.132e-3
0.488, 1.151e-3
0.489, 1.170e-3
0.490, 1.185e-3
0.491, 1.200e-3
0.492, 1.212e-3
0.493, 1.223e-3
0.494, 1.235e-3
0.495, 1.248e-3
0.496, 1.257e-3
0.497, 1.269e-3
0.498, 1.278e-3
0.499, 1.290e-3
0.500, 1.299e-3
0.501, 1.308e-3
0.502, 1.316e-3
0.503, 1.327e-3
0.504, 1.337e-3
0.505, 1.346e-3
0.506, 1.354e-3
0.507, 1.362e-3
0.508, 1.367e-3
0.509, 1.373e-3
0.510, 1.376e-3
0.511, 1.380e-3
0.512, 1.382e-3
0.513, 1.386e-3
0.514, 1.388e-3
0.515, 1.393e-3
0.516, 1.397e-3
0.517, 1.403e-3
0.518, 1.410e-3
0.519, 1.417e-3
0.520, 1.422e-3
0.521, 1.427e-3
0.522, 1.431e-3
0.523, 1.437e-3
0.524, 1.444e-3
0.525, 1.449e-3
0.526, 1.453e-3
0.527, 1.458e-3
0.528, 1.460e-3
0.529, 1.464e-3
0.530, 1.465e-3
0.531, 1.466e-3
0.532, 1.466e-3
0.533, 1.467e-3
0.534, 1.469e-3
0.535, 1.472e-3
0.536, 1.474e-3
0.537, 1.479e-3
0.538, 1.482e-3
0.539, 1.489e-3
0.540, 1.492e-3
0.541, 1.497e-3
0.542, 1.500e-3
0.543, 1.504e-3
0.544, 1.508e-3
0.545, 1.515e-3
0.546, 1.519e-3
0.547, 1.523e-3
0.548, 1.526e-3
0.549, 1.529e-3
0.550, 1.531e-3
0.551, 1.533e-3
0.552, 1.531e-3
0.553, 1.529e-3
0.554, 1.526e-3
0.555, 1.528e-3
0.556, 1.531e-3
0.557, 1.535e-3
0.558, 1.539e-3
0.559, 1.545e-3
0.560, 1.549e-3
0.561, 1.555e-3
0.562, 1.557e-3
0.563, 1.563e-3
0.564, 1.567e-3
0.565, 1.569e-3
0.566, 1.572e-3
0.567, 1.579e-3
0.568, 1.581e-3
0.569, 1.582e-3
0.570, 1.481e-3
0.569, 1.150e-3
0.568, 8.714e-4
0.567, 6.402e-4
0.566, 4.447e-4
0.565, 2.761e-4
0.564, 1.303e-4
0.563, 1.758e-6
0.562, -1.111e-4
0.561, -2.088e-4
0.560, -2.969e-4
0.559, -3.742e-4
0.558, -4.436e-4
0.557, -5.057e-4
0.556, -5.635e-4
0.555, -6.150e-4
0.554, -6.647e-4
0.553, -7.083e-4
0.552, -7.492e-4
0.551, -7.872e-4
0.550, -8.230e-4
0.549, -8.552e-4
0.548, -8.876e-4
0.547, -9.156e-4
0.546, -9.443e-4
0.545, -9.686e-4
0.544, -9.914e-4
0.543, -1.011e-3
0.542, -1.030e-3
0.541, -1.047e-3
0.540, -1.063e-3
0.539, -1.077e-3
0.538, -1.090e-3
0.537, -1.102e-3
0.536, -1.114e-3
0.535, -1.125e-3
0.534, -1.137e-3
0.533, -1.149e-3
0.532, -1.162e-3
0.531, -1.172e-3
0.530, -1.184e-3
0.529, -1.193e-3
0.528, -1.205e-3
0.527, -1.216e-3
0.526, -1.226e-3
0.525, -1.235e-3
0.524, -1.246e-3
0.523, -1.253e-3
0.522, -1.261e-3
0.521, -1.266e-3
0.520, -1.272e-3
0.519, -1.277e-3
0.518, -1.281e-3
0.517, -1.284e-3
0.516, -1.287e-3
0.515, -1.290e-3
0.514, -1.296e-3
0.513, -1.301e-3
0.512, -1.307e-3
0.511, -1.313e-3
0.510, -1.319e-3
0.509, -1.325e-3
0.508, -1.333e-3
0.507, -1.337e-3
0.506, -1.343e-3
0.505, -1.348e-3
0.504, -1.356e-3
0.503, -1.361e-3
0.502, -1.365e-3
0.501, -1.368e-3
0.500, -1.370e-3
0.499, -1.370e-3
0.498, -1.373e-3
0.497, -1.373e-3
0.496, -1.375e-3
0.495, -1.376e-3
0.494, -1.378e-3
0.493, -1.382e-3
0.492, -1.386e-3
0.491, -1.388e-3
0.490, -1.394e-3
0.489, -1.398e-3
0.488, -1.402e-3
0.487, -1.408e-3
0.486, -1.413e-3
0.485, -1.419e-3
0.484, -1.423e-3
0.483, -1.424e-3
0.482, -1.427e-3
0.481, -1.428e-3
0.480, -1.430e-3
0.479, -1.430e-3
0.478, -1.430e-3
0.477, -1.429e-3
0.476, -1.430e-3
0.475, -1.431e-3
0.474, -1.434e-3
0.473, -1.436e-3
0.472, -1.439e-3
0.471, -1.443e-3
0.470, -1.347e-3
0.471, -1.024e-3
0.472, -7.544e-4
0.473, -5.321e-4
0.474, -3.462e-4
0.475, -1.853e-4
0.476, -4.608e-5
0.477, 7.745e-5
0.478, 1.873e-4
0.479, 2.865e-4
0.480, 3.729e-4
0.481, 4.526e-4
0.482, 5.226e-4
0.483, 5.875e-4
0.484, 6.463e-4
0.485, 6.994e-4
0.486, 7.473e-4
0.487, 7.903e-4
0.488, 8.280e-4
0.489, 8.641e-4
0.490, 8.937e-4
0.491, 9.223e-4
0.492, 9.483e-4
0.493, 9.722e-4
0.494, 9.954e-4
0.495, 1.017e-3
0.496, 1.036e-3
0.497, 1.056e-3
0.498, 1.074e-3
0.499, 1.094e-3
0.500, 1.112e-3
0.501, 1.129e-3
0.502, 1.146e-3
0.503, 1.161e-3
0.504, 1.175e-3
0.505, 1.190e-3
0.506, 1.201e-3
0.507, 1.212e-3
0.508, 1.220e-3
0.509, 1.229e-3
0.510, 1.236e-3
0.511, 1.243e-3
0.512, 1.248e-3
0.513, 1.255e-3
0.514, 1.260e-3
0.515, 1.268e-3
0.516, 1.275e-3
0.517, 1.282e-3
0.518, 1.290e-3
0.519, 1.300e-3
0.520, 1.307e-3
0.521, 1.316e-3
0.522, 1.322e-3
0.523, 1.330e-3
0.524, 1.338e-3
0.525, 1.346e-3
0.526, 1.352e-3
0.527, 1.359e-3
0.528, 1.364e-3
0.529, 1.371e-3
0.530, 1.371e-3
0.531, 1.372e-3
0.532, 1.374e-3
0.533, 1.375e-3
0.534, 1.378e-3
0.535, 1.384e-3
0.536, 1.388e-3
0.537, 1.395e-3
0.538, 1.400e-3
0.539, 1.406e-3
0.540, 1.411e-3
0.541, 1.417e-3
0.542, 1.422e-3
0.543, 1.429e-3
0.544, 1.434e-3
0.545, 1.441e-3
0.546, 1.444e-3
0.547, 1.450e-3
0.548, 1.453e-3
0.549, 1.455e-3
0.550, 1.455e-3
0.551, 1.456e-3
0.552, 1.456e-3
0.553, 1.459e-3
0.554, 1.461e-3
0.555, 1.464e-3
0.556, 1.467e-3
0.557, 1.473e-3
0.558, 1.477e-3
0.559, 1.482e-3
0.560, 1.486e-3
0.561, 1.491e-3
0.562, 1.494e-3
0.563, 1.501e-3
0.564, 1.507e-3
0.565, 1.511e-3
0.566, 1.515e-3
0.567, 1.519e-3
0.568, 1.522e-3
0.569, 1.525e-3
0.570, 1.424e-3
0.569, 1.095e-3
0.568, 8.167e-4
0.567, 5.865e-4
0.566, 3.932e-4
0.565, 2.256e-4
0.564, 7.993e-5
0.563, -4.530e-5
0.562, -1.567e-4
0.561, -2.530e-4
0.560, -3.405e-4
0.559, -4.184e-4
0.558, -4.868e-4
0.557, -5.486e-4
0.556, -6.042e-4
0.555, -6.546e-4
0.554, -7.028e-4
0.553, -7.462e-4
0.552, -7.885e-4
0.551, -8.263e-4
0.550, -8.608e-4
0.549, -8.932e-4
0.548, -9.239e-4
0.547, -9.517e-4
0.546, -9.798e-4
0.545, -1.003e-3
0.544, -1.027e-3
0.543, -1.046e-3
0.542, -1.064e-3
0.541, -1.079e-3
0.540, -1.094e-3
0.539, -1.106e-3
0.538, -1.119e-3
0.537, -1.130e-3
0.536, -1.142e-3
0.535, -1.154e-3
0.534, -1.166e-3
0.533, -1.179e-3
0.532, -1.191e-3
0.531, -1.201e-3
0.530, -1.211e-3
0.529, -1.222e-3
0.528, -1.232e-3
0.527, -1.243e-3
0.526, -1.252e-3
0.525, -1.263e-3
0.524, -1.272e-3
0.523, -1.277e-3
0.522, -1.284e-3
0.521, -1.288e-3
0.520, -1.292e-3
0.519, -1.295e-3
0.518, -1.298e-3
0.517, -1.301e-3
0.516, -1.307e-3
0.515, -1.312e-3
0.514, -1.318e-3
0.513, -1.323e-3
0.512, -1.330e-3
0.511, -1.336e-3
0.510, -1.341e-3
0.509, -1.348e-3
0.508, -1.355e-3
0.507, -1.360e-3
0.506, -1.367e-3
0.505, -1.373e-3
0.504, -1.378e-3
0.503, -1.380e-3
0.502, -1.380e-3
0.501, -1.382e-3
0.500, -1.384e-3
0.499, -1.385e-3
0.498, -1.386e-3
0.497, -1.386e-3
0.496, -1.388e-3
0.495, -1.391e-3
0.494, -1.395e-3
0.493, -1.397e-3
0.492, -1.403e-3
0.491, -1.406e-3
0.490, -1.411e-3
0.489, -1.416e-3
0.488, -1.420e-3
0.487, -1.424e-3
0.486, -1.429e-3
0.485, -1.434e-3
0.484, -1.439e-3
0.483, -1.438e-3
0.482, -1.440e-3
0.481, -1.438e-3
0.480, -1.439e-3
0.479, -1.439e-3
0.478, -1.439e-3
0.477, -1.440e-3
0.476, -1.440e-3
0.475, -1.442e-3
0.474, -1.446e-3
0.473, -1.449e-3
0.472, -1.452e-3
0.471, -1.456e-3
0.470, -1.360e-3
0.471, -1.038e-3
0.472, -7.700e-4
0.473, -5.479e-4
0.474, -3.608e-4
0.475, -1.987e-4
0.476, -5.774e-5
0.477, 6.738e-5
0.478, 1.776e-4
0.479, 2.773e-4
0.480, 3.644e-4
0.481, 4.444e-4
0.482, 5.153e-4
0.483, 5.804e-4
0.484, 6.385e-4
0.485, 6.894e-4
0.486, 7.365e-4
0.487, 7.788e-4
0.488, 8.167e-4
0.489, 8.524e-4
0.490, 8.819e-4
0.491, 9.105e-4
0.492, 9.365e-4
0.493, 9.605e-4
0.494, 9.834e-4
0.495, 1.007e-3
0.496, 1.029e-3
0.497, 1.051e-3
0.498, 1.069e-3
0.499, 1.088e-3
0.500, 1.105e-3
0.501, 1.122e-3
0.502, 1.139e-3
0.503, 1.154e-3
0.504, 1.165e-3
0.505, 1.180e-3
0.506, 1.191e-3
0.507, 1.201e-3
0.508, 1.209e-3
0.509, 1.216e-3
0.510, 1.222e-3
0.511, 1.228e-3
0.512, 1.235e-3
0.513, 1.243e-3
0.514, 1.252e-3
0.515, 1.261e-3
0.516, 1.270e-3
0.517, 1.279e-3
0.518, 1.288e-3
0.519, 1.296e-3
0.520, 1.303e-3
0.521, 1.313e-3
0.522, 1.322e-3
0.523, 1.329e-3
0.524, 1.334e-3
0.525, 1.339e-3
0.526, 1.344e-3
0.527, 1.349e-3
0.528, 1.350e-3
0.529, 1.353e-3
0.530, 1.355e-3
0.531, 1.359e-3
0.532, 1.362e-3
0.533, 1.365e-3
0.534, 1.370e-3
0.535, 1.377e-3
0.536, 1.383e-3
0.537, 1.389e-3
0.538, 1.395e-3
0.539, 1.401e-3
0.540, 1.406e-3
0.541, 1.413e-3
0.542, 1.418e-3
0.543, 1.424e-3
0.544, 1.430e-3
0.545, 1.435e-3
0.546, 1.437e-3
0.547, 1.440e-3
0.548, 1.442e-3
0.549, 1.443e-3
0.550, 1.443e-3
0.551, 1.444e-3
0.552, 1.446e-3
0.553, 1.451e-3
0.554, 1.454e-3
0.555, 1.459e-3
0.556, 1.463e-3
0.557, 1.468e-3
0.558, 1.472e-3
0.559, 1.478e-3
0.560, 1.483e-3
0.561, 1.489e-3
0.562, 1.493e-3
0.563, 1.500e-3
0.564, 1.506e-3
0.565, 1.508e-3
0.566, 1.508e-3
0.567, 1.510e-3
0.568, 1.510e-3
0.569, 1.511e-3
0.570, 1.411e-3
0.569, 1.082e-3
0.568, 8.054e-4
0.567, 5.768e-4
0.566, 3.846e-4
0.565, 2.192e-4
0.564, 7.635e-5
0.563, -4.972e-5
0.562, -1.596e-4
0.561, -2.559e-4
0.560, -3.414e-4
0.559, -4.186e-4
0.558, -4.869e-4
0.557, -5.499e-4
0.556, -6.082e-4
0.555, -6.606e-4
0.554, -7.109e-4
0.553, -7.544e-4
0.552, -7.961e-4
0.551, -8.349e-4
0.550, -8.703e-4
0.549, -9.033e-4
0.548, -9.337e-4
0.547, -9.606e-4
0.546, -9.868e-4
0.545, -1.008e-3
0.544, -1.029e-3
0.543, -1.048e-3
0.542, -1.064e-3
0.541, -1.078e-3
0.540, -1.091e-3
0.539, -1.104e-3
0.538, -1.118e-3
0.537, -1.131e-3
0.536, -1.145e-3
0.535, -1.158e-3
0.534, -1.171e-3
0.533, -1.183e-3
0.532, -1.196e-3
0.531, -1.208e-3
0.530, -1.221e-3
0.529, -1.230e-3
0.528, -1.241e-3
0.527, -1.251e-3
0.526, -1.258e-3
0.525, -1.265e-3
0.524, -1.271e-3
0.523, -1.274e-3
0.522, -1.280e-3
0.521, -1.284e-3
0.520, -1.288e-3
0.519, -1.292e-3
0.518, -1.297e-3
0.517, -1.302e-3
0.516, -1.309e-3
0.515, -1.317e-3
0.514, -1.324e-3
0.513, -1.329e-3
0.512, -1.335e-3
0.511, -1.342e-3
0.510, -1.346e-3
0.509, -1.354e-3
0.508, -1.360e-3
0.507, -1.365e-3
0.506, -1.370e-3
0.505, -1.372e-3
0.504, -1.375e-3
0.503, -1.377e-3
0.502, -1.377e-3
0.501, -1.378e-3
0.500, -1.380e-3
0.499, -1.381e-3
0.498, -1.385e-3
0.497, -1.387e-3
0.496, -1.392e-3
0.495, -1.396e-3
0.494, -1.400e-3
0.493, -1.403e-3
0.492, -1.406e-3
0.491, -1.407e-3
0.490, -1.414e-3
0.489, -1.419e-3
0.488, -1.423e-3
0.487, -1.429e-3
0.486, -1.432e-3
0.485, -1.437e-3
0.484, -1.440e-3
0.483, -1.440e-3
0.482, -1.441e-3
0.481, -1.440e-3
0.480, -1.439e-3
0.479, -1.439e-3
0.478, -1.439e-3
0.477, -1.440e-3
0.476, -1.443e-3
0.475, -1.446e-3
0.474, -1.450e-3
0.473, -1.451e-3
0.472, -1.454e-3
0.471, -1.456e-3
0.470, -1.360e-3
0.471, -1.041e-3
0.472, -7.740e-4
0.473, -5.518e-4
0.474, -3.640e-4
0.475, -2.012e-4
0.476, -5.885e-5
0.477, 6.598e-5
0.478, 1.767e-4
0.479, 2.761e-4
0.480, 3.643e-4
0.481, 4.435e-4
0.482, 5.143e-4
0.483, 5.791e-4
0.484, 6.373e-4
0.485, 6.885e-4
0.486, 7.353e-4
0.487, 7.777e-4
0.488, 8.155e-4
0.489, 8.504e-4
0.490, 8.805e-4
0.491, 9.096e-4
0.492, 9.351e-4
0.493, 9.602e-4
0.494, 9.836e-4
0.495, 1.007e-3
0.496, 1.028e-3
0.497, 1.048e-3
0.498, 1.066e-3
0.499, 1.084e-3
0.500, 1.101e-3
0.501, 1.117e-3
0.502, 1.133e-3
0.503, 1.149e-3
0.504, 1.162e-3
0.505, 1.176e-3
0.506, 1.188e-3
0.507, 1.200e-3
0.508, 1.210e-3
0.509, 1.219e-3
0.510, 1.226e-3
0.511, 1.233e-3
0.512, 1.240e-3
0.513, 1.246e-3
0.514, 1.252e-3
0.515, 1.259e-3
0.516, 1.267e-3
0.517, 1.274e-3
0.518, 1.282e-3
0.519, 1.290e-3
0.520, 1.298e-3
0.521, 1.306e-3
0.522, 1.313e-3
0.523, 1.320e-3
0.524, 1.327e-3
0.525, 1.334e-3
0.526, 1.342e-3
0.527, 1.348e-3
0.528, 1.353e-3
0.529, 1.358e-3
0.530, 1.363e-3
0.531, 1.366e-3
0.532, 1.368e-3
0.533, 1.370e-3
0.534, 1.373e-3
0.535, 1.377e-3
0.536, 1.380e-3
0.537, 1.385e-3
0.538, 1.388e-3
0.539, 1.394e-3
0.540, 1.399e-3
0.541, 1.405e-3
0.542, 1.411e-3
0.543, 1.416e-3
0.544, 1.420e-3
0.545, 1.427e-3
0.546, 1.431e-3
0.547, 1.437e-3
0.548, 1.442e-3
0.549, 1.445e-3
0.550, 1.449e-3
0.551, 1.451e-3
0.552, 1.453e-3
0.553, 1.455e-3
0.554, 1.457e-3
0.555, 1.459e-3
0.556, 1.461e-3
0.557, 1.465e-3
0.558, 1.468e-3
0.559, 1.469e-3
0.560, 1.472e-3
0.561, 1.478e-3
0.562, 1.482e-3
0.563, 1.488e-3
0.564, 1.495e-3
0.565, 1.498e-3
0.566, 1.501e-3
0.567, 1.507e-3
0.568, 1.511e-3
0.569, 1.516e-3
0.570, 1.417e-3
0.569, 1.091e-3
0.568, 8.151e-4
0.567, 5.861e-4
0.566, 3.926e-4
0.565, 2.262e-4
0.564, 7.997e-5
0.563, -4.926e-5
0.562, -1.632e-4
0.561, -2.625e-4
0.560, -3.524e-4
0.559, -4.318e-4
0.558, -5.019e-4
0.557, -5.643e-4
0.556, -6.215e-4
0.555, -6.716e-4
0.554, -7.184e-4
0.553, -7.600e-4
0.552, -7.979e-4
0.551, -8.325e-4
0.550, -8.646e-4
0.549, -8.954e-4
0.548, -9.238e-4
0.547, -9.506e-4
0.546, -9.766e-4
0.545, -9.991e-4
0.544, -1.023e-3
0.543, -1.045e-3
0.542, -1.065e-3
0.541, -1.083e-3
0.540, -1.101e-3
0.539, -1.117e-3
0.538, -1.133e-3
0.537, -1.147e-3
0.536, -1.159e-3
0.535, -1.170e-3
0.534, -1.180e-3
0.533, -1.189e-3
0.532, -1.199e-3
0.531, -1.207e-3
0.530, -1.214e-3
0.529, -1.222e-3
0.528, -1.230e-3
0.527, -1.238e-3
0.526, -1.245e-3
0.525, -1.252e-3
0.524, -1.261e-3
0.523, -1.268e-3
0.522, -1.278e-3
0.521, -1.286e-3
0.520, -1.293e-3
0.519, -1.301e-3
0.518, -1.309e-3
0.517, -1.315e-3
0.516, -1.322e-3
0.515, -1.327e-3
0.514, -1.332e-3
0.513, -1.334e-3
0.512, -1.338e-3
0.511, -1.341e-3
0.510, -1.345e-3
0.509, -1.347e-3
0.508, -1.351e-3
0.507, -1.354e-3
0.506, -1.358e-3
0.505, -1.361e-3
0.504, -1.365e-3
0.503, -1.369e-3
0.502, -1.372e-3
0.501, -1.376e-3
0.500, -1.382e-3
0.499, -1.387e-3
0.498, -1.391e-3
0.497, -1.397e-3
0.496, -1.403e-3
0.495, -1.408e-3
0.494, -1.411e-3
0.493, -1.415e-3
0.492, -1.417e-3
0.491, -1.417e-3
0.490, -1.418e-3
0.489, -1.419e-3
0.488, -1.420e-3
0.487, -1.421e-3
0.486, -1.422e-3
0.485, -1.422e-3
0.484, -1.424e-3
0.483, -1.425e-3
0.482, -1.429e-3
0.481, -1.432e-3
0.480, -1.437e-3
0.479, -1.441e-3
0.478, -1.445e-3
0.477, -1.451e-3
0.476, -1.454e-3
0.475, -1.457e-3
0.474, -1.462e-3
0.473, -1.464e-3
0.472, -1.466e-3
0.471, -1.468e-3
0.470, -1.369e-3
0.471, -1.044e-3
0.472, -7.713e-4
0.473, -5.452e-4
0.474, -3.550e-4
0.475, -1.908e-4
0.476, -4.763e-5
0.477, 7.616e-5
0.478, 1.862e-4
0.479, 2.833e-4
0.480, 3.694e-4
0.481, 4.460e-4
0.482, 5.144e-4
0.483, 5.757e-4
0.484, 6.312e-4
0.485, 6.802e-4
0.486, 7.259e-4
0.487, 7.677e-4
0.488, 8.052e-4
0.489, 8.415e-4
0.490, 8.740e-4
0.491, 9.054e-4
0.492, 9.358e-4
0.493, 9.647e-4
0.494, 9.900e-4
0.495, 1.013e-3
0.496, 1.034e-3
0.497, 1.055e-3
0.498, 1.074e-3
0.499, 1.093e-3
0.500, 1.110e-3
0.501, 1.123e-3
0.502, 1.138e-3
0.503, 1.151e-3
0.504, 1.160e-3
0.505, 1.171e-3
0.506, 1.180e-3
0.507, 1.189e-3
0.508, 1.199e-3
0.509, 1.207e-3
0.510, 1.216e-3
0.511, 1.225e-3
0.512, 1.235e-3
0.513, 1.246e-3
0.514, 1.255e-3
0.515, 1.264e-3
0.516, 1.272e-3
0.517, 1.280e-3
0.518, 1.288e-3
0.519, 1.298e-3
0.520, 1.305e-3
0.521, 1.312e-3
0.522, 1.318e-3
0.523, 1.324e-3
0.524, 1.330e-3
0.525, 1.333e-3
0.526, 1.337e-3
0.527, 1.339e-3
0.528, 1.342e-3
0.529, 1.345e-3
0.530, 1.349e-3
0.531, 1.355e-3
0.532, 1.360e-3
0.533, 1.364e-3
0.534, 1.371e-3
0.535, 1.378e-3
0.536, 1.383e-3
0.537, 1.390e-3
0.538, 1.395e-3
0.539, 1.402e-3
0.540, 1.408e-3
0.541, 1.414e-3
0.542, 1.420e-3
0.543, 1.425e-3
0.544, 1.428e-3
0.545, 1.430e-3
0.546, 1.431e-3
0.547, 1.433e-3
0.548, 1.436e-3
0.549, 1.435e-3
0.550, 1.436e-3
0.551, 1.439e-3
0.552, 1.442e-3
0.553, 1.446e-3
0.554, 1.449e-3
0.555, 1.454e-3
0.556, 1.460e-3
0.557, 1.466e-3
0.558, 1.471e-3
0.559, 1.475e-3
0.560, 1.480e-3
0.561, 1.486e-3
0.562, 1.490e-3
0.563, 1.495e-3
0.564, 1.500e-3
0.565, 1.502e-3
0.566, 1.504e-3
0.567, 1.505e-3
0.568, 1.505e-3
0.569, 1.506e-3
0.570, 1.406e-3
0.569, 1.079e-3
0.568, 8.030e-4
0.567, 5.746e-4
0.566, 3.825e-4
0.565, 2.179e-4
0.564, 7.451e-5
0.563, -5.165e-5
0.562, -1.619e-4
0.561, -2.584e-4
0.560, -3.446e-4
0.559, -4.223e-4
0.558, -4.905e-4
0.557, -5.538e-4
0.556, -6.105e-4
0.555, -6.628e-4
0.554, -7.117e-4
0.553, -7.556e-4
0.552, -7.968e-4
0.551, -8.353e-4
0.550, -8.697e-4
0.549, -9.024e-4
0.548, -9.325e-4
0.547, -9.607e-4
0.546, -9.866e-4
0.545, -1.010e-3
0.544, -1.031e-3
0.543, -1.051e-3
0.542, -1.068e-3
0.541, -1.083e-3
0.540, -1.098e-3
0.539, -1.111e-3
0.538, -1.124e-3
0.537, -1.135e-3
0.536, -1.147e-3
0.535, -1.159e-3
0.534, -1.170e-3
0.533, -1.182e-3
0.532, -1.193e-3
0.531, -1.204e-3
0.530, -1.214e-3
0.529, -1.225e-3
0.528, -1.235e-3
0.527, -1.245e-3
0.526, -1.252e-3
0.525, -1.262e-3
0.524, -1.272e-3
0.523, -1.279e-3
0.522, -1.287e-3
0.521, -1.292e-3
0.520, -1.297e-3
0.519, -1.302e-3
0.518, -1.306e-3
0.517, -1.310e-3
0.516, -1.313e-3
0.515, -1.316e-3
0.514, -1.320e-3
0.513, -1.323e-3
0.512, -1.328e-3
0.511, -1.333e-3
0.510, -1.338e-3
0.509, -1.345e-3
0.508, -1.351e-3
0.507, -1.357e-3
0.506, -1.363e-3
0.505, -1.370e-3
0.504, -1.375e-3
0.503, -1.381e-3
0.502, -1.386e-3
0.501, -1.390e-3
0.500, -1.392e-3
0.499, -1.393e-3
0.498, -1.395e-3
0.497, -1.395e-3
0.496, -1.397e-3
0.495, -1.398e-3
0.494, -1.397e-3
0.493, -1.401e-3
0.492, -1.403e-3
0.491, -1.405e-3
0.490, -1.408e-3
0.489, -1.412e-3
0.488, -1.416e-3
0.487, -1.421e-3
0.486, -1.425e-3
0.485, -1.429e-3
0.484, -1.433e-3
0.483, -1.437e-3
0.482, -1.442e-3
0.481, -1.444e-3
0.480, -1.446e-3
0.479, -1.449e-3
0.478, -1.450e-3
0.477, -1.452e-3
0.476, -1.454e-3
0.475, -1.454e-3
0.474, -1.455e-3
0.473, -1.457e-3
0.472, -1.458e-3
0.471, -1.460e-3
