Nov. 23, 2024   17:52:17
Cyclic Voltammetry
File: d:\yx\20241123\6-2\cv-20.bin
Data Source:  Experiment
Instrument Model:  CHI660E
Header: 
Note: 

Init E (V) = 0.47
High E (V) = 0.57
Low E (V) = 0.47
Init P/N = P
Scan Rate (V/s) = 0.02
Segment = 10
Sample Interval (V) = 0.001
Quiet Time (sec) = 2
Sensitivity (A/V) = 0.001

Results:

Channel 1:
Segment 1:

Segment 2:

Segment 3:

Segment 4:

Segment 5:

Segment 6:

Segment 7:

Segment 8:

Segment 9:

Segment 10:

Potential/V, Current/A

0.470, -9.461e-5
0.471, 1.149e-5
0.472, 7.537e-5
0.473, 1.082e-4
0.474, 1.276e-4
0.475, 1.510e-4
0.476, 1.731e-4
0.477, 1.818e-4
0.478, 1.849e-4
0.479, 1.969e-4
0.480, 2.122e-4
0.481, 2.180e-4
0.482, 2.166e-4
0.483, 2.233e-4
0.484, 2.366e-4
0.485, 2.427e-4
0.486, 2.404e-4
0.487, 2.435e-4
0.488, 2.544e-4
0.489, 2.628e-4
0.490, 2.598e-4
0.491, 2.588e-4
0.492, 2.684e-4
0.493, 2.775e-4
0.494, 2.761e-4
0.495, 2.729e-4
0.496, 2.790e-4
0.497, 2.889e-4
0.498, 2.891e-4
0.499, 2.845e-4
0.500, 2.890e-4
0.501, 2.981e-4
0.502, 3.004e-4
0.503, 2.948e-4
0.504, 2.960e-4
0.505, 3.057e-4
0.506, 3.103e-4
0.507, 3.044e-4
0.508, 3.031e-4
0.509, 3.113e-4
0.510, 3.177e-4
0.511, 3.134e-4
0.512, 3.090e-4
0.513, 3.165e-4
0.514, 3.243e-4
0.515, 3.206e-4
0.516, 3.157e-4
0.517, 3.212e-4
0.518, 3.304e-4
0.519, 3.279e-4
0.520, 3.208e-4
0.521, 3.253e-4
0.522, 3.342e-4
0.523, 3.325e-4
0.524, 3.260e-4
0.525, 3.292e-4
0.526, 3.379e-4
0.527, 3.377e-4
0.528, 3.298e-4
0.529, 3.319e-4
0.530, 3.408e-4
0.531, 3.431e-4
0.532, 3.355e-4
0.533, 3.344e-4
0.534, 3.435e-4
0.535, 3.469e-4
0.536, 3.385e-4
0.537, 3.378e-4
0.538, 3.462e-4
0.539, 3.500e-4
0.540, 3.433e-4
0.541, 3.400e-4
0.542, 3.473e-4
0.543, 3.535e-4
0.544, 3.472e-4
0.545, 3.425e-4
0.546, 3.486e-4
0.547, 3.554e-4
0.548, 3.509e-4
0.549, 3.440e-4
0.550, 3.504e-4
0.551, 3.571e-4
0.552, 3.527e-4
0.553, 3.469e-4
0.554, 3.509e-4
0.555, 3.586e-4
0.556, 3.565e-4
0.557, 3.489e-4
0.558, 3.530e-4
0.559, 3.605e-4
0.560, 3.589e-4
0.561, 3.516e-4
0.562, 3.537e-4
0.563, 3.627e-4
0.564, 3.629e-4
0.565, 3.534e-4
0.566, 3.551e-4
0.567, 3.636e-4
0.568, 3.637e-4
0.569, 3.559e-4
0.570, 2.695e-4
0.569, 7.914e-5
0.568, -2.740e-5
0.567, -1.010e-4
0.566, -1.461e-4
0.565, -1.683e-4
0.564, -1.863e-4
0.563, -2.108e-4
0.562, -2.283e-4
0.561, -2.315e-4
0.560, -2.360e-4
0.559, -2.510e-4
0.558, -2.621e-4
0.557, -2.620e-4
0.556, -2.621e-4
0.555, -2.713e-4
0.554, -2.832e-4
0.553, -2.819e-4
0.552, -2.782e-4
0.551, -2.854e-4
0.550, -2.952e-4
0.549, -2.945e-4
0.548, -2.909e-4
0.547, -2.949e-4
0.546, -3.056e-4
0.545, -3.056e-4
0.544, -2.997e-4
0.543, -3.023e-4
0.542, -3.110e-4
0.541, -3.132e-4
0.540, -3.076e-4
0.539, -3.067e-4
0.538, -3.161e-4
0.537, -3.201e-4
0.536, -3.132e-4
0.535, -3.112e-4
0.534, -3.187e-4
0.533, -3.245e-4
0.532, -3.189e-4
0.531, -3.148e-4
0.530, -3.217e-4
0.529, -3.289e-4
0.528, -3.233e-4
0.527, -3.184e-4
0.526, -3.232e-4
0.525, -3.318e-4
0.524, -3.285e-4
0.523, -3.208e-4
0.522, -3.253e-4
0.521, -3.341e-4
0.520, -3.315e-4
0.519, -3.247e-4
0.518, -3.268e-4
0.517, -3.362e-4
0.516, -3.356e-4
0.515, -3.269e-4
0.514, -3.285e-4
0.513, -3.371e-4
0.512, -3.380e-4
0.511, -3.307e-4
0.510, -3.303e-4
0.509, -3.392e-4
0.508, -3.410e-4
0.507, -3.327e-4
0.506, -3.318e-4
0.505, -3.401e-4
0.504, -3.432e-4
0.503, -3.358e-4
0.502, -3.335e-4
0.501, -3.418e-4
0.500, -3.456e-4
0.499, -3.381e-4
0.498, -3.350e-4
0.497, -3.425e-4
0.496, -3.474e-4
0.495, -3.409e-4
0.494, -3.367e-4
0.493, -3.433e-4
0.492, -3.501e-4
0.491, -3.439e-4
0.490, -3.390e-4
0.489, -3.441e-4
0.488, -3.518e-4
0.487, -3.471e-4
0.486, -3.408e-4
0.485, -3.452e-4
0.484, -3.536e-4
0.483, -3.496e-4
0.482, -3.434e-4
0.481, -3.472e-4
0.480, -3.548e-4
0.479, -3.529e-4
0.478, -3.450e-4
0.477, -3.482e-4
0.476, -3.571e-4
0.475, -3.548e-4
0.474, -3.477e-4
0.473, -3.491e-4
0.472, -3.580e-4
0.471, -3.580e-4
0.470, -2.645e-4
0.471, -7.132e-5
0.472, 2.594e-5
0.473, 8.808e-5
0.474, 1.362e-4
0.475, 1.662e-4
0.476, 1.796e-4
0.477, 1.926e-4
0.478, 2.124e-4
0.479, 2.264e-4
0.480, 2.277e-4
0.481, 2.315e-4
0.482, 2.444e-4
0.483, 2.554e-4
0.484, 2.555e-4
0.485, 2.538e-4
0.486, 2.642e-4
0.487, 2.748e-4
0.488, 2.745e-4
0.489, 2.709e-4
0.490, 2.771e-4
0.491, 2.873e-4
0.492, 2.899e-4
0.493, 2.850e-4
0.494, 2.874e-4
0.495, 2.976e-4
0.496, 3.017e-4
0.497, 2.966e-4
0.498, 2.954e-4
0.499, 3.041e-4
0.500, 3.109e-4
0.501, 3.066e-4
0.502, 3.024e-4
0.503, 3.100e-4
0.504, 3.172e-4
0.505, 3.153e-4
0.506, 3.100e-4
0.507, 3.136e-4
0.508, 3.223e-4
0.509, 3.234e-4
0.510, 3.175e-4
0.511, 3.175e-4
0.512, 3.248e-4
0.513, 3.292e-4
0.514, 3.233e-4
0.515, 3.205e-4
0.516, 3.283e-4
0.517, 3.342e-4
0.518, 3.300e-4
0.519, 3.246e-4
0.520, 3.290e-4
0.521, 3.372e-4
0.522, 3.358e-4
0.523, 3.287e-4
0.524, 3.312e-4
0.525, 3.397e-4
0.526, 3.402e-4
0.527, 3.328e-4
0.528, 3.325e-4
0.529, 3.410e-4
0.530, 3.441e-4
0.531, 3.378e-4
0.532, 3.354e-4
0.533, 3.410e-4
0.534, 3.468e-4
0.535, 3.424e-4
0.536, 3.378e-4
0.537, 3.426e-4
0.538, 3.492e-4
0.539, 3.462e-4
0.540, 3.395e-4
0.541, 3.427e-4
0.542, 3.510e-4
0.543, 3.504e-4
0.544, 3.427e-4
0.545, 3.438e-4
0.546, 3.518e-4
0.547, 3.529e-4
0.548, 3.467e-4
0.549, 3.444e-4
0.550, 3.519e-4
0.551, 3.560e-4
0.552, 3.497e-4
0.553, 3.457e-4
0.554, 3.512e-4
0.555, 3.573e-4
0.556, 3.549e-4
0.557, 3.473e-4
0.558, 3.503e-4
0.559, 3.583e-4
0.560, 3.588e-4
0.561, 3.521e-4
0.562, 3.499e-4
0.563, 3.575e-4
0.564, 3.623e-4
0.565, 3.573e-4
0.566, 3.523e-4
0.567, 3.561e-4
0.568, 3.616e-4
0.569, 3.616e-4
0.570, 2.692e-4
0.569, 7.031e-5
0.568, -3.137e-5
0.567, -9.209e-5
0.566, -1.382e-4
0.565, -1.728e-4
0.564, -1.901e-4
0.563, -1.999e-4
0.562, -2.142e-4
0.561, -2.315e-4
0.560, -2.412e-4
0.559, -2.425e-4
0.558, -2.451e-4
0.557, -2.568e-4
0.556, -2.674e-4
0.555, -2.667e-4
0.554, -2.652e-4
0.553, -2.714e-4
0.552, -2.808e-4
0.551, -2.843e-4
0.550, -2.802e-4
0.549, -2.806e-4
0.548, -2.893e-4
0.547, -2.952e-4
0.546, -2.924e-4
0.545, -2.889e-4
0.544, -2.939e-4
0.543, -3.033e-4
0.542, -3.031e-4
0.541, -2.977e-4
0.540, -2.977e-4
0.539, -3.057e-4
0.538, -3.109e-4
0.537, -3.062e-4
0.536, -3.016e-4
0.535, -3.074e-4
0.534, -3.140e-4
0.533, -3.129e-4
0.532, -3.070e-4
0.531, -3.081e-4
0.530, -3.162e-4
0.529, -3.189e-4
0.528, -3.133e-4
0.527, -3.104e-4
0.526, -3.155e-4
0.525, -3.224e-4
0.524, -3.196e-4
0.523, -3.132e-4
0.522, -3.155e-4
0.521, -3.228e-4
0.520, -3.241e-4
0.519, -3.189e-4
0.518, -3.158e-4
0.517, -3.229e-4
0.516, -3.284e-4
0.515, -3.233e-4
0.514, -3.183e-4
0.513, -3.218e-4
0.512, -3.294e-4
0.511, -3.293e-4
0.510, -3.222e-4
0.509, -3.215e-4
0.508, -3.284e-4
0.507, -3.322e-4
0.506, -3.271e-4
0.505, -3.225e-4
0.504, -3.272e-4
0.503, -3.343e-4
0.502, -3.321e-4
0.501, -3.251e-4
0.500, -3.264e-4
0.499, -3.337e-4
0.498, -3.353e-4
0.497, -3.296e-4
0.496, -3.265e-4
0.495, -3.325e-4
0.494, -3.377e-4
0.493, -3.345e-4
0.492, -3.290e-4
0.491, -3.310e-4
0.490, -3.390e-4
0.489, -3.396e-4
0.488, -3.330e-4
0.487, -3.313e-4
0.486, -3.376e-4
0.485, -3.425e-4
0.484, -3.377e-4
0.483, -3.319e-4
0.482, -3.366e-4
0.481, -3.439e-4
0.480, -3.423e-4
0.479, -3.362e-4
0.478, -3.353e-4
0.477, -3.435e-4
0.476, -3.464e-4
0.475, -3.390e-4
0.474, -3.365e-4
0.473, -3.426e-4
0.472, -3.479e-4
0.471, -3.438e-4
0.470, -2.527e-4
0.471, -6.339e-5
0.472, 3.381e-5
0.473, 9.874e-5
0.474, 1.461e-4
0.475, 1.727e-4
0.476, 1.852e-4
0.477, 2.001e-4
0.478, 2.196e-4
0.479, 2.313e-4
0.480, 2.322e-4
0.481, 2.376e-4
0.482, 2.515e-4
0.483, 2.607e-4
0.484, 2.589e-4
0.485, 2.583e-4
0.486, 2.694e-4
0.487, 2.791e-4
0.488, 2.762e-4
0.489, 2.740e-4
0.490, 2.834e-4
0.491, 2.922e-4
0.492, 2.903e-4
0.493, 2.856e-4
0.494, 2.931e-4
0.495, 3.028e-4
0.496, 3.003e-4
0.497, 2.944e-4
0.498, 3.013e-4
0.499, 3.104e-4
0.500, 3.089e-4
0.501, 3.025e-4
0.502, 3.086e-4
0.503, 3.177e-4
0.504, 3.153e-4
0.505, 3.087e-4
0.506, 3.138e-4
0.507, 3.231e-4
0.508, 3.205e-4
0.509, 3.137e-4
0.510, 3.193e-4
0.511, 3.285e-4
0.512, 3.248e-4
0.513, 3.189e-4
0.514, 3.247e-4
0.515, 3.328e-4
0.516, 3.297e-4
0.517, 3.222e-4
0.518, 3.285e-4
0.519, 3.371e-4
0.520, 3.318e-4
0.521, 3.259e-4
0.522, 3.324e-4
0.523, 3.395e-4
0.524, 3.347e-4
0.525, 3.284e-4
0.526, 3.357e-4
0.527, 3.421e-4
0.528, 3.355e-4
0.529, 3.314e-4
0.530, 3.384e-4
0.531, 3.447e-4
0.532, 3.383e-4
0.533, 3.338e-4
0.534, 3.423e-4
0.535, 3.474e-4
0.536, 3.382e-4
0.537, 3.362e-4
0.538, 3.457e-4
0.539, 3.491e-4
0.540, 3.404e-4
0.541, 3.393e-4
0.542, 3.485e-4
0.543, 3.502e-4
0.544, 3.410e-4
0.545, 3.425e-4
0.546, 3.511e-4
0.547, 3.510e-4
0.548, 3.419e-4
0.549, 3.443e-4
0.550, 3.537e-4
0.551, 3.516e-4
0.552, 3.423e-4
0.553, 3.482e-4
0.554, 3.569e-4
0.555, 3.516e-4
0.556, 3.451e-4
0.557, 3.511e-4
0.558, 3.579e-4
0.559, 3.519e-4
0.560, 3.462e-4
0.561, 3.538e-4
0.562, 3.593e-4
0.563, 3.527e-4
0.564, 3.489e-4
0.565, 3.569e-4
0.566, 3.610e-4
0.567, 3.524e-4
0.568, 3.508e-4
0.569, 3.607e-4
0.570, 2.762e-4
0.569, 6.994e-5
0.568, -3.732e-5
0.567, -9.259e-5
0.566, -1.340e-4
0.565, -1.715e-4
0.564, -1.903e-4
0.563, -1.979e-4
0.562, -2.131e-4
0.561, -2.314e-4
0.560, -2.362e-4
0.559, -2.360e-4
0.558, -2.460e-4
0.557, -2.596e-4
0.556, -2.591e-4
0.555, -2.568e-4
0.554, -2.677e-4
0.553, -2.777e-4
0.552, -2.733e-4
0.551, -2.723e-4
0.550, -2.822e-4
0.549, -2.888e-4
0.548, -2.829e-4
0.547, -2.821e-4
0.546, -2.927e-4
0.545, -2.969e-4
0.544, -2.892e-4
0.543, -2.901e-4
0.542, -3.010e-4
0.541, -3.021e-4
0.540, -2.942e-4
0.539, -2.975e-4
0.538, -3.079e-4
0.537, -3.053e-4
0.536, -2.979e-4
0.535, -3.035e-4
0.534, -3.126e-4
0.533, -3.077e-4
0.532, -3.018e-4
0.531, -3.087e-4
0.530, -3.165e-4
0.529, -3.098e-4
0.528, -3.053e-4
0.527, -3.142e-4
0.526, -3.182e-4
0.525, -3.105e-4
0.524, -3.088e-4
0.523, -3.174e-4
0.522, -3.205e-4
0.521, -3.121e-4
0.520, -3.120e-4
0.519, -3.222e-4
0.518, -3.215e-4
0.517, -3.129e-4
0.516, -3.154e-4
0.515, -3.240e-4
0.514, -3.224e-4
0.513, -3.139e-4
0.512, -3.181e-4
0.511, -3.276e-4
0.510, -3.233e-4
0.509, -3.161e-4
0.508, -3.215e-4
0.507, -3.287e-4
0.506, -3.245e-4
0.505, -3.179e-4
0.504, -3.235e-4
0.503, -3.318e-4
0.502, -3.250e-4
0.501, -3.199e-4
0.500, -3.265e-4
0.499, -3.327e-4
0.498, -3.254e-4
0.497, -3.214e-4
0.496, -3.290e-4
0.495, -3.342e-4
0.494, -3.258e-4
0.493, -3.231e-4
0.492, -3.320e-4
0.491, -3.355e-4
0.490, -3.279e-4
0.489, -3.257e-4
0.488, -3.338e-4
0.487, -3.367e-4
0.486, -3.277e-4
0.485, -3.279e-4
0.484, -3.368e-4
0.483, -3.381e-4
0.482, -3.296e-4
0.481, -3.295e-4
0.480, -3.379e-4
0.479, -3.399e-4
0.478, -3.314e-4
0.477, -3.313e-4
0.476, -3.407e-4
0.475, -3.398e-4
0.474, -3.319e-4
0.473, -3.335e-4
0.472, -3.422e-4
0.471, -3.418e-4
0.470, -2.484e-4
0.471, -5.750e-5
0.472, 3.782e-5
0.473, 1.031e-4
0.474, 1.509e-4
0.475, 1.745e-4
0.476, 1.865e-4
0.477, 2.058e-4
0.478, 2.251e-4
0.479, 2.307e-4
0.480, 2.315e-4
0.481, 2.441e-4
0.482, 2.569e-4
0.483, 2.569e-4
0.484, 2.555e-4
0.485, 2.660e-4
0.486, 2.768e-4
0.487, 2.742e-4
0.488, 2.716e-4
0.489, 2.828e-4
0.490, 2.905e-4
0.491, 2.854e-4
0.492, 2.843e-4
0.493, 2.941e-4
0.494, 3.012e-4
0.495, 2.955e-4
0.496, 2.936e-4
0.497, 3.037e-4
0.498, 3.097e-4
0.499, 3.029e-4
0.500, 3.016e-4
0.501, 3.111e-4
0.502, 3.157e-4
0.503, 3.092e-4
0.504, 3.078e-4
0.505, 3.171e-4
0.506, 3.219e-4
0.507, 3.143e-4
0.508, 3.133e-4
0.509, 3.226e-4
0.510, 3.263e-4
0.511, 3.188e-4
0.512, 3.173e-4
0.513, 3.271e-4
0.514, 3.310e-4
0.515, 3.237e-4
0.516, 3.223e-4
0.517, 3.301e-4
0.518, 3.340e-4
0.519, 3.264e-4
0.520, 3.251e-4
0.521, 3.345e-4
0.522, 3.378e-4
0.523, 3.288e-4
0.524, 3.278e-4
0.525, 3.373e-4
0.526, 3.392e-4
0.527, 3.315e-4
0.528, 3.307e-4
0.529, 3.408e-4
0.530, 3.420e-4
0.531, 3.330e-4
0.532, 3.343e-4
0.533, 3.427e-4
0.534, 3.431e-4
0.535, 3.345e-4
0.536, 3.365e-4
0.537, 3.461e-4
0.538, 3.447e-4
0.539, 3.359e-4
0.540, 3.399e-4
0.541, 3.484e-4
0.542, 3.451e-4
0.543, 3.371e-4
0.544, 3.432e-4
0.545, 3.513e-4
0.546, 3.458e-4
0.547, 3.391e-4
0.548, 3.469e-4
0.549, 3.526e-4
0.550, 3.470e-4
0.551, 3.417e-4
0.552, 3.480e-4
0.553, 3.545e-4
0.554, 3.468e-4
0.555, 3.429e-4
0.556, 3.516e-4
0.557, 3.557e-4
0.558, 3.476e-4
0.559, 3.456e-4
0.560, 3.543e-4
0.561, 3.576e-4
0.562, 3.485e-4
0.563, 3.485e-4
0.564, 3.578e-4
0.565, 3.584e-4
0.566, 3.489e-4
0.567, 3.505e-4
0.568, 3.588e-4
0.569, 3.600e-4
0.570, 2.637e-4
0.569, 6.910e-5
0.568, -2.885e-5
0.567, -9.443e-5
0.566, -1.437e-4
0.565, -1.694e-4
0.564, -1.814e-4
0.563, -2.010e-4
0.562, -2.208e-4
0.561, -2.275e-4
0.560, -2.277e-4
0.559, -2.389e-4
0.558, -2.528e-4
0.557, -2.552e-4
0.556, -2.528e-4
0.555, -2.601e-4
0.554, -2.726e-4
0.553, -2.721e-4
0.552, -2.678e-4
0.551, -2.746e-4
0.550, -2.847e-4
0.549, -2.837e-4
0.548, -2.784e-4
0.547, -2.832e-4
0.546, -2.942e-4
0.545, -2.921e-4
0.544, -2.861e-4
0.543, -2.915e-4
0.542, -3.004e-4
0.541, -2.987e-4
0.540, -2.919e-4
0.539, -2.954e-4
0.538, -3.059e-4
0.537, -3.035e-4
0.536, -2.965e-4
0.535, -3.007e-4
0.534, -3.099e-4
0.533, -3.077e-4
0.532, -3.007e-4
0.531, -3.040e-4
0.530, -3.140e-4
0.529, -3.113e-4
0.528, -3.036e-4
0.527, -3.075e-4
0.526, -3.161e-4
0.525, -3.139e-4
0.524, -3.067e-4
0.523, -3.100e-4
0.522, -3.190e-4
0.521, -3.159e-4
0.520, -3.085e-4
0.519, -3.123e-4
0.518, -3.208e-4
0.517, -3.181e-4
0.516, -3.115e-4
0.515, -3.145e-4
0.514, -3.240e-4
0.513, -3.197e-4
0.512, -3.124e-4
0.511, -3.180e-4
0.510, -3.251e-4
0.509, -3.207e-4
0.508, -3.142e-4
0.507, -3.186e-4
0.506, -3.272e-4
0.505, -3.218e-4
0.504, -3.154e-4
0.503, -3.220e-4
0.502, -3.292e-4
0.501, -3.235e-4
0.500, -3.180e-4
0.499, -3.236e-4
0.498, -3.316e-4
0.497, -3.250e-4
0.496, -3.192e-4
0.495, -3.256e-4
0.494, -3.317e-4
0.493, -3.257e-4
0.492, -3.211e-4
0.491, -3.272e-4
0.490, -3.341e-4
0.489, -3.274e-4
0.488, -3.224e-4
0.487, -3.298e-4
0.486, -3.355e-4
0.485, -3.282e-4
0.484, -3.246e-4
0.483, -3.306e-4
0.482, -3.373e-4
0.481, -3.301e-4
0.480, -3.260e-4
0.479, -3.330e-4
0.478, -3.385e-4
0.477, -3.315e-4
0.476, -3.275e-4
0.475, -3.347e-4
0.474, -3.408e-4
0.473, -3.330e-4
0.472, -3.285e-4
0.471, -3.366e-4
0.470, -2.569e-4
0.471, -5.660e-5
0.472, 5.202e-5
0.473, 1.072e-4
0.474, 1.414e-4
0.475, 1.752e-4
0.476, 2.003e-4
0.477, 2.079e-4
0.478, 2.147e-4
0.479, 2.312e-4
0.480, 2.445e-4
0.481, 2.453e-4
0.482, 2.461e-4
0.483, 2.573e-4
0.484, 2.684e-4
0.485, 2.665e-4
0.486, 2.650e-4
0.487, 2.749e-4
0.488, 2.840e-4
0.489, 2.825e-4
0.490, 2.789e-4
0.491, 2.868e-4
0.492, 2.966e-4
0.493, 2.944e-4
0.494, 2.892e-4
0.495, 2.955e-4
0.496, 3.053e-4
0.497, 3.033e-4
0.498, 2.973e-4
0.499, 3.033e-4
0.500, 3.130e-4
0.501, 3.110e-4
0.502, 3.044e-4
0.503, 3.091e-4
0.504, 3.175e-4
0.505, 3.177e-4
0.506, 3.108e-4
0.507, 3.141e-4
0.508, 3.233e-4
0.509, 3.226e-4
0.510, 3.154e-4
0.511, 3.178e-4
0.512, 3.268e-4
0.513, 3.285e-4
0.514, 3.205e-4
0.515, 3.206e-4
0.516, 3.298e-4
0.517, 3.325e-4
0.518, 3.250e-4
0.519, 3.236e-4
0.520, 3.316e-4
0.521, 3.364e-4
0.522, 3.292e-4
0.523, 3.259e-4
0.524, 3.331e-4
0.525, 3.386e-4
0.526, 3.330e-4
0.527, 3.286e-4
0.528, 3.342e-4
0.529, 3.414e-4
0.530, 3.365e-4
0.531, 3.304e-4
0.532, 3.360e-4
0.533, 3.430e-4
0.534, 3.403e-4
0.535, 3.332e-4
0.536, 3.368e-4
0.537, 3.452e-4
0.538, 3.430e-4
0.539, 3.350e-4
0.540, 3.387e-4
0.541, 3.462e-4
0.542, 3.453e-4
0.543, 3.380e-4
0.544, 3.393e-4
0.545, 3.482e-4
0.546, 3.483e-4
0.547, 3.396e-4
0.548, 3.404e-4
0.549, 3.486e-4
0.550, 3.507e-4
0.551, 3.424e-4
0.552, 3.413e-4
0.553, 3.495e-4
0.554, 3.523e-4
0.555, 3.444e-4
0.556, 3.431e-4
0.557, 3.509e-4
0.558, 3.547e-4
0.559, 3.474e-4
0.560, 3.441e-4
0.561, 3.524e-4
0.562, 3.566e-4
0.563, 3.499e-4
0.564, 3.473e-4
0.565, 3.533e-4
0.566, 3.584e-4
0.567, 3.516e-4
0.568, 3.470e-4
0.569, 3.549e-4
0.570, 2.743e-4
0.569, 7.038e-5
0.568, -4.110e-5
0.567, -9.718e-5
0.566, -1.324e-4
0.565, -1.674e-4
0.564, -1.931e-4
0.563, -2.015e-4
0.562, -2.095e-4
0.561, -2.263e-4
0.560, -2.396e-4
0.559, -2.386e-4
0.558, -2.410e-4
0.557, -2.541e-4
0.556, -2.630e-4
0.555, -2.591e-4
0.554, -2.599e-4
0.553, -2.707e-4
0.552, -2.777e-4
0.551, -2.734e-4
0.550, -2.727e-4
0.549, -2.828e-4
0.548, -2.889e-4
0.547, -2.814e-4
0.546, -2.815e-4
0.545, -2.914e-4
0.544, -2.963e-4
0.543, -2.892e-4
0.542, -2.883e-4
0.541, -2.985e-4
0.540, -3.018e-4
0.539, -2.933e-4
0.538, -2.945e-4
0.537, -3.036e-4
0.536, -3.053e-4
0.535, -2.978e-4
0.534, -2.989e-4
0.533, -3.082e-4
0.532, -3.089e-4
0.531, -3.001e-4
0.530, -3.024e-4
0.529, -3.119e-4
0.528, -3.112e-4
0.527, -3.033e-4
0.526, -3.062e-4
0.525, -3.148e-4
0.524, -3.122e-4
0.523, -3.045e-4
0.522, -3.103e-4
0.521, -3.183e-4
0.520, -3.140e-4
0.519, -3.076e-4
0.518, -3.126e-4
0.517, -3.205e-4
0.516, -3.158e-4
0.515, -3.094e-4
0.514, -3.154e-4
0.513, -3.225e-4
0.512, -3.174e-4
0.511, -3.115e-4
0.510, -3.169e-4
0.509, -3.247e-4
0.508, -3.191e-4
0.507, -3.121e-4
0.506, -3.189e-4
0.505, -3.262e-4
0.504, -3.197e-4
0.503, -3.148e-4
0.502, -3.207e-4
0.501, -3.276e-4
0.500, -3.218e-4
0.499, -3.160e-4
0.498, -3.226e-4
0.497, -3.296e-4
0.496, -3.235e-4
0.495, -3.179e-4
0.494, -3.238e-4
0.493, -3.309e-4
0.492, -3.253e-4
0.491, -3.193e-4
0.490, -3.256e-4
0.489, -3.327e-4
0.488, -3.271e-4
0.487, -3.214e-4
0.486, -3.264e-4
0.485, -3.339e-4
0.484, -3.294e-4
0.483, -3.221e-4
0.482, -3.275e-4
0.481, -3.352e-4
0.480, -3.313e-4
0.479, -3.247e-4
0.478, -3.282e-4
0.477, -3.369e-4
0.476, -3.337e-4
0.475, -3.261e-4
0.474, -3.299e-4
0.473, -3.380e-4
0.472, -3.355e-4
0.471, -3.289e-4
