Nov. 23, 2024   17:52:46
Cyclic Voltammetry
File: d:\yx\20241123\6-2\cv-40.bin
Data Source:  Experiment
Instrument Model:  CHI660E
Header: 
Note: 

Init E (V) = 0.47
High E (V) = 0.57
Low E (V) = 0.47
Init P/N = P
Scan Rate (V/s) = 0.04
Segment = 10
Sample Interval (V) = 0.001
Quiet Time (sec) = 2
Sensitivity (A/V) = 0.001

Results:

Channel 1:
Segment 1:

Segment 2:

Segment 3:

Segment 4:

Segment 5:

Segment 6:

Segment 7:

Segment 8:

Segment 9:

Segment 10:

Potential/V, Current/A

0.470, 2.733e-5
0.471, 1.424e-4
0.472, 2.353e-4
0.473, 3.039e-4
0.474, 3.569e-4
0.475, 3.995e-4
0.476, 4.332e-4
0.477, 4.566e-4
0.478, 4.724e-4
0.479, 4.825e-4
0.480, 4.926e-4
0.481, 5.050e-4
0.482, 5.177e-4
0.483, 5.312e-4
0.484, 5.424e-4
0.485, 5.488e-4
0.486, 5.510e-4
0.487, 5.510e-4
0.488, 5.529e-4
0.489, 5.581e-4
0.490, 5.660e-4
0.491, 5.744e-4
0.492, 5.825e-4
0.493, 5.861e-4
0.494, 5.855e-4
0.495, 5.812e-4
0.496, 5.816e-4
0.497, 5.875e-4
0.498, 5.938e-4
0.499, 6.010e-4
0.500, 6.066e-4
0.501, 6.073e-4
0.502, 6.051e-4
0.503, 6.018e-4
0.504, 6.017e-4
0.505, 6.070e-4
0.506, 6.131e-4
0.507, 6.195e-4
0.508, 6.240e-4
0.509, 6.242e-4
0.510, 6.213e-4
0.511, 6.173e-4
0.512, 6.176e-4
0.513, 6.235e-4
0.514, 6.293e-4
0.515, 6.354e-4
0.516, 6.394e-4
0.517, 6.387e-4
0.518, 6.340e-4
0.519, 6.301e-4
0.520, 6.314e-4
0.521, 6.358e-4
0.522, 6.404e-4
0.523, 6.465e-4
0.524, 6.499e-4
0.525, 6.486e-4
0.526, 6.444e-4
0.527, 6.410e-4
0.528, 6.418e-4
0.529, 6.460e-4
0.530, 6.518e-4
0.531, 6.584e-4
0.532, 6.602e-4
0.533, 6.569e-4
0.534, 6.527e-4
0.535, 6.493e-4
0.536, 6.511e-4
0.537, 6.555e-4
0.538, 6.602e-4
0.539, 6.657e-4
0.540, 6.678e-4
0.541, 6.659e-4
0.542, 6.616e-4
0.543, 6.586e-4
0.544, 6.587e-4
0.545, 6.633e-4
0.546, 6.671e-4
0.547, 6.722e-4
0.548, 6.740e-4
0.549, 6.737e-4
0.550, 6.701e-4
0.551, 6.663e-4
0.552, 6.657e-4
0.553, 6.694e-4
0.554, 6.734e-4
0.555, 6.788e-4
0.556, 6.819e-4
0.557, 6.815e-4
0.558, 6.772e-4
0.559, 6.723e-4
0.560, 6.719e-4
0.561, 6.757e-4
0.562, 6.791e-4
0.563, 6.847e-4
0.564, 6.891e-4
0.565, 6.880e-4
0.566, 6.845e-4
0.567, 6.808e-4
0.568, 6.798e-4
0.569, 6.818e-4
0.570, 6.264e-4
0.569, 3.844e-4
0.568, 1.905e-4
0.567, 5.184e-5
0.566, -5.286e-5
0.565, -1.362e-4
0.564, -2.014e-4
0.563, -2.517e-4
0.562, -2.884e-4
0.561, -3.159e-4
0.560, -3.395e-4
0.559, -3.615e-4
0.558, -3.819e-4
0.557, -4.034e-4
0.556, -4.228e-4
0.555, -4.381e-4
0.554, -4.487e-4
0.553, -4.555e-4
0.552, -4.613e-4
0.551, -4.676e-4
0.550, -4.762e-4
0.549, -4.871e-4
0.548, -4.986e-4
0.547, -5.087e-4
0.546, -5.147e-4
0.545, -5.165e-4
0.544, -5.176e-4
0.543, -5.191e-4
0.542, -5.234e-4
0.541, -5.308e-4
0.540, -5.388e-4
0.539, -5.470e-4
0.538, -5.525e-4
0.537, -5.531e-4
0.536, -5.525e-4
0.535, -5.511e-4
0.534, -5.527e-4
0.533, -5.573e-4
0.532, -5.639e-4
0.531, -5.708e-4
0.530, -5.770e-4
0.529, -5.787e-4
0.528, -5.772e-4
0.527, -5.744e-4
0.526, -5.728e-4
0.525, -5.758e-4
0.524, -5.806e-4
0.523, -5.869e-4
0.522, -5.928e-4
0.521, -5.947e-4
0.520, -5.929e-4
0.519, -5.905e-4
0.518, -5.890e-4
0.517, -5.904e-4
0.516, -5.932e-4
0.515, -5.984e-4
0.514, -6.046e-4
0.513, -6.085e-4
0.512, -6.073e-4
0.511, -6.041e-4
0.510, -6.008e-4
0.509, -6.005e-4
0.508, -6.023e-4
0.507, -6.064e-4
0.506, -6.126e-4
0.505, -6.173e-4
0.504, -6.173e-4
0.503, -6.141e-4
0.502, -6.103e-4
0.501, -6.084e-4
0.500, -6.098e-4
0.499, -6.141e-4
0.498, -6.196e-4
0.497, -6.242e-4
0.496, -6.256e-4
0.495, -6.228e-4
0.494, -6.189e-4
0.493, -6.169e-4
0.492, -6.177e-4
0.491, -6.203e-4
0.490, -6.245e-4
0.489, -6.286e-4
0.488, -6.320e-4
0.487, -6.315e-4
0.486, -6.287e-4
0.485, -6.266e-4
0.484, -6.251e-4
0.483, -6.246e-4
0.482, -6.272e-4
0.481, -6.313e-4
0.480, -6.362e-4
0.479, -6.372e-4
0.478, -6.348e-4
0.477, -6.320e-4
0.476, -6.290e-4
0.475, -6.290e-4
0.474, -6.309e-4
0.473, -6.347e-4
0.472, -6.398e-4
0.471, -6.441e-4
0.470, -5.856e-4
0.471, -3.393e-4
0.472, -1.422e-4
0.473, -4.155e-6
0.474, 9.465e-5
0.475, 1.675e-4
0.476, 2.217e-4
0.477, 2.650e-4
0.478, 3.032e-4
0.479, 3.373e-4
0.480, 3.668e-4
0.481, 3.923e-4
0.482, 4.119e-4
0.483, 4.264e-4
0.484, 4.365e-4
0.485, 4.434e-4
0.486, 4.529e-4
0.487, 4.649e-4
0.488, 4.779e-4
0.489, 4.902e-4
0.490, 5.002e-4
0.491, 5.073e-4
0.492, 5.103e-4
0.493, 5.119e-4
0.494, 5.150e-4
0.495, 5.196e-4
0.496, 5.278e-4
0.497, 5.373e-4
0.498, 5.453e-4
0.499, 5.515e-4
0.500, 5.535e-4
0.501, 5.531e-4
0.502, 5.533e-4
0.503, 5.543e-4
0.504, 5.587e-4
0.505, 5.655e-4
0.506, 5.731e-4
0.507, 5.791e-4
0.508, 5.821e-4
0.509, 5.827e-4
0.510, 5.817e-4
0.511, 5.804e-4
0.512, 5.821e-4
0.513, 5.880e-4
0.514, 5.939e-4
0.515, 5.996e-4
0.516, 6.041e-4
0.517, 6.054e-4
0.518, 6.047e-4
0.519, 6.028e-4
0.520, 6.015e-4
0.521, 6.038e-4
0.522, 6.087e-4
0.523, 6.142e-4
0.524, 6.211e-4
0.525, 6.240e-4
0.526, 6.229e-4
0.527, 6.198e-4
0.528, 6.176e-4
0.529, 6.178e-4
0.530, 6.206e-4
0.531, 6.261e-4
0.532, 6.318e-4
0.533, 6.355e-4
0.534, 6.371e-4
0.535, 6.355e-4
0.536, 6.322e-4
0.537, 6.306e-4
0.538, 6.314e-4
0.539, 6.365e-4
0.540, 6.414e-4
0.541, 6.462e-4
0.542, 6.490e-4
0.543, 6.478e-4
0.544, 6.452e-4
0.545, 6.424e-4
0.546, 6.415e-4
0.547, 6.447e-4
0.548, 6.497e-4
0.549, 6.545e-4
0.550, 6.585e-4
0.551, 6.592e-4
0.552, 6.561e-4
0.553, 6.525e-4
0.554, 6.507e-4
0.555, 6.527e-4
0.556, 6.572e-4
0.557, 6.623e-4
0.558, 6.675e-4
0.559, 6.687e-4
0.560, 6.669e-4
0.561, 6.629e-4
0.562, 6.595e-4
0.563, 6.609e-4
0.564, 6.654e-4
0.565, 6.702e-4
0.566, 6.763e-4
0.567, 6.778e-4
0.568, 6.766e-4
0.569, 6.726e-4
0.570, 6.102e-4
0.569, 3.649e-4
0.568, 1.694e-4
0.567, 3.481e-5
0.566, -6.279e-5
0.565, -1.388e-4
0.564, -2.003e-4
0.563, -2.539e-4
0.562, -2.977e-4
0.561, -3.319e-4
0.560, -3.584e-4
0.559, -3.768e-4
0.558, -3.909e-4
0.557, -4.059e-4
0.556, -4.215e-4
0.555, -4.371e-4
0.554, -4.539e-4
0.553, -4.684e-4
0.552, -4.778e-4
0.551, -4.824e-4
0.550, -4.849e-4
0.549, -4.892e-4
0.548, -4.961e-4
0.547, -5.047e-4
0.546, -5.154e-4
0.545, -5.238e-4
0.544, -5.312e-4
0.543, -5.331e-4
0.542, -5.328e-4
0.541, -5.335e-4
0.540, -5.359e-4
0.539, -5.417e-4
0.538, -5.499e-4
0.537, -5.573e-4
0.536, -5.637e-4
0.535, -5.648e-4
0.534, -5.625e-4
0.533, -5.615e-4
0.532, -5.623e-4
0.531, -5.655e-4
0.530, -5.712e-4
0.529, -5.781e-4
0.528, -5.847e-4
0.527, -5.865e-4
0.526, -5.841e-4
0.525, -5.812e-4
0.524, -5.797e-4
0.523, -5.820e-4
0.522, -5.877e-4
0.521, -5.931e-4
0.520, -5.992e-4
0.519, -6.016e-4
0.518, -5.993e-4
0.517, -5.959e-4
0.516, -5.935e-4
0.515, -5.941e-4
0.514, -5.970e-4
0.513, -6.022e-4
0.512, -6.091e-4
0.511, -6.135e-4
0.510, -6.115e-4
0.509, -6.079e-4
0.508, -6.041e-4
0.507, -6.039e-4
0.506, -6.069e-4
0.505, -6.111e-4
0.504, -6.167e-4
0.503, -6.210e-4
0.502, -6.210e-4
0.501, -6.173e-4
0.500, -6.131e-4
0.499, -6.108e-4
0.498, -6.127e-4
0.497, -6.166e-4
0.496, -6.225e-4
0.495, -6.271e-4
0.494, -6.280e-4
0.493, -6.254e-4
0.492, -6.216e-4
0.491, -6.183e-4
0.490, -6.199e-4
0.489, -6.226e-4
0.488, -6.272e-4
0.487, -6.329e-4
0.486, -6.355e-4
0.485, -6.334e-4
0.484, -6.293e-4
0.483, -6.261e-4
0.482, -6.258e-4
0.481, -6.273e-4
0.480, -6.321e-4
0.479, -6.380e-4
0.478, -6.411e-4
0.477, -6.398e-4
0.476, -6.356e-4
0.475, -6.317e-4
0.474, -6.306e-4
0.473, -6.328e-4
0.472, -6.373e-4
0.471, -6.418e-4
0.470, -5.885e-4
0.471, -3.451e-4
0.472, -1.477e-4
0.473, -8.077e-6
0.474, 9.423e-5
0.475, 1.695e-4
0.476, 2.248e-4
0.477, 2.666e-4
0.478, 3.022e-4
0.479, 3.332e-4
0.480, 3.620e-4
0.481, 3.882e-4
0.482, 4.104e-4
0.483, 4.269e-4
0.484, 4.376e-4
0.485, 4.446e-4
0.486, 4.522e-4
0.487, 4.625e-4
0.488, 4.750e-4
0.489, 4.875e-4
0.490, 4.986e-4
0.491, 5.065e-4
0.492, 5.100e-4
0.493, 5.110e-4
0.494, 5.134e-4
0.495, 5.187e-4
0.496, 5.264e-4
0.497, 5.359e-4
0.498, 5.444e-4
0.499, 5.503e-4
0.500, 5.519e-4
0.501, 5.501e-4
0.502, 5.501e-4
0.503, 5.531e-4
0.504, 5.591e-4
0.505, 5.669e-4
0.506, 5.743e-4
0.507, 5.790e-4
0.508, 5.796e-4
0.509, 5.776e-4
0.510, 5.760e-4
0.511, 5.781e-4
0.512, 5.831e-4
0.513, 5.899e-4
0.514, 5.967e-4
0.515, 6.023e-4
0.516, 6.032e-4
0.517, 5.993e-4
0.518, 5.964e-4
0.519, 5.965e-4
0.520, 6.010e-4
0.521, 6.070e-4
0.522, 6.134e-4
0.523, 6.186e-4
0.524, 6.198e-4
0.525, 6.177e-4
0.526, 6.139e-4
0.527, 6.120e-4
0.528, 6.149e-4
0.529, 6.213e-4
0.530, 6.270e-4
0.531, 6.316e-4
0.532, 6.331e-4
0.533, 6.306e-4
0.534, 6.264e-4
0.535, 6.248e-4
0.536, 6.270e-4
0.537, 6.327e-4
0.538, 6.382e-4
0.539, 6.440e-4
0.540, 6.448e-4
0.541, 6.421e-4
0.542, 6.387e-4
0.543, 6.370e-4
0.544, 6.387e-4
0.545, 6.432e-4
0.546, 6.474e-4
0.547, 6.528e-4
0.548, 6.549e-4
0.549, 6.524e-4
0.550, 6.479e-4
0.551, 6.455e-4
0.552, 6.471e-4
0.553, 6.516e-4
0.554, 6.562e-4
0.555, 6.620e-4
0.556, 6.641e-4
0.557, 6.620e-4
0.558, 6.585e-4
0.559, 6.552e-4
0.560, 6.547e-4
0.561, 6.593e-4
0.562, 6.647e-4
0.563, 6.715e-4
0.564, 6.749e-4
0.565, 6.723e-4
0.566, 6.678e-4
0.567, 6.633e-4
0.568, 6.632e-4
0.569, 6.666e-4
0.570, 6.137e-4
0.569, 3.735e-4
0.568, 1.787e-4
0.567, 3.896e-5
0.566, -6.698e-5
0.565, -1.502e-4
0.564, -2.138e-4
0.563, -2.617e-4
0.562, -2.967e-4
0.561, -3.234e-4
0.560, -3.470e-4
0.559, -3.708e-4
0.558, -3.931e-4
0.557, -4.149e-4
0.556, -4.332e-4
0.555, -4.453e-4
0.554, -4.528e-4
0.553, -4.585e-4
0.552, -4.656e-4
0.551, -4.751e-4
0.550, -4.849e-4
0.549, -4.973e-4
0.548, -5.079e-4
0.547, -5.149e-4
0.546, -5.173e-4
0.545, -5.177e-4
0.544, -5.194e-4
0.543, -5.236e-4
0.542, -5.301e-4
0.541, -5.387e-4
0.540, -5.467e-4
0.539, -5.518e-4
0.538, -5.536e-4
0.537, -5.529e-4
0.536, -5.526e-4
0.535, -5.549e-4
0.534, -5.593e-4
0.533, -5.653e-4
0.532, -5.718e-4
0.531, -5.766e-4
0.530, -5.779e-4
0.529, -5.757e-4
0.528, -5.735e-4
0.527, -5.739e-4
0.526, -5.761e-4
0.525, -5.811e-4
0.524, -5.882e-4
0.523, -5.935e-4
0.522, -5.954e-4
0.521, -5.925e-4
0.520, -5.898e-4
0.519, -5.884e-4
0.518, -5.896e-4
0.517, -5.940e-4
0.516, -5.998e-4
0.515, -6.058e-4
0.514, -6.082e-4
0.513, -6.055e-4
0.512, -6.019e-4
0.511, -5.989e-4
0.510, -5.994e-4
0.509, -6.036e-4
0.508, -6.095e-4
0.507, -6.149e-4
0.506, -6.174e-4
0.505, -6.154e-4
0.504, -6.121e-4
0.503, -6.094e-4
0.502, -6.086e-4
0.501, -6.113e-4
0.500, -6.161e-4
0.499, -6.214e-4
0.498, -6.243e-4
0.497, -6.225e-4
0.496, -6.197e-4
0.495, -6.164e-4
0.494, -6.152e-4
0.493, -6.186e-4
0.492, -6.228e-4
0.491, -6.282e-4
0.490, -6.323e-4
0.489, -6.308e-4
0.488, -6.266e-4
0.487, -6.230e-4
0.486, -6.216e-4
0.485, -6.240e-4
0.484, -6.278e-4
0.483, -6.337e-4
0.482, -6.380e-4
0.481, -6.370e-4
0.480, -6.339e-4
0.479, -6.290e-4
0.478, -6.281e-4
0.477, -6.300e-4
0.476, -6.339e-4
0.475, -6.388e-4
0.474, -6.437e-4
0.473, -6.436e-4
0.472, -6.394e-4
0.471, -6.353e-4
0.470, -5.748e-4
0.471, -3.327e-4
0.472, -1.427e-4
0.473, -1.325e-5
0.474, 8.195e-5
0.475, 1.585e-4
0.476, 2.213e-4
0.477, 2.718e-4
0.478, 3.134e-4
0.479, 3.444e-4
0.480, 3.671e-4
0.481, 3.835e-4
0.482, 3.981e-4
0.483, 4.152e-4
0.484, 4.329e-4
0.485, 4.489e-4
0.486, 4.644e-4
0.487, 4.748e-4
0.488, 4.802e-4
0.489, 4.827e-4
0.490, 4.866e-4
0.491, 4.941e-4
0.492, 5.039e-4
0.493, 5.142e-4
0.494, 5.240e-4
0.495, 5.300e-4
0.496, 5.322e-4
0.497, 5.309e-4
0.498, 5.317e-4
0.499, 5.374e-4
0.500, 5.449e-4
0.501, 5.530e-4
0.502, 5.615e-4
0.503, 5.649e-4
0.504, 5.650e-4
0.505, 5.635e-4
0.506, 5.628e-4
0.507, 5.659e-4
0.508, 5.723e-4
0.509, 5.796e-4
0.510, 5.869e-4
0.511, 5.904e-4
0.512, 5.906e-4
0.513, 5.879e-4
0.514, 5.850e-4
0.515, 5.872e-4
0.516, 5.933e-4
0.517, 5.997e-4
0.518, 6.068e-4
0.519, 6.099e-4
0.520, 6.089e-4
0.521, 6.057e-4
0.522, 6.033e-4
0.523, 6.044e-4
0.524, 6.091e-4
0.525, 6.149e-4
0.526, 6.216e-4
0.527, 6.246e-4
0.528, 6.227e-4
0.529, 6.192e-4
0.530, 6.160e-4
0.531, 6.184e-4
0.532, 6.243e-4
0.533, 6.288e-4
0.534, 6.351e-4
0.535, 6.376e-4
0.536, 6.354e-4
0.537, 6.322e-4
0.538, 6.298e-4
0.539, 6.298e-4
0.540, 6.343e-4
0.541, 6.394e-4
0.542, 6.459e-4
0.543, 6.491e-4
0.544, 6.486e-4
0.545, 6.438e-4
0.546, 6.400e-4
0.547, 6.395e-4
0.548, 6.436e-4
0.549, 6.486e-4
0.550, 6.543e-4
0.551, 6.573e-4
0.552, 6.568e-4
0.553, 6.539e-4
0.554, 6.495e-4
0.555, 6.488e-4
0.556, 6.522e-4
0.557, 6.572e-4
0.558, 6.627e-4
0.559, 6.663e-4
0.560, 6.657e-4
0.561, 6.627e-4
0.562, 6.568e-4
0.563, 6.573e-4
0.564, 6.617e-4
0.565, 6.651e-4
0.566, 6.706e-4
0.567, 6.743e-4
0.568, 6.739e-4
0.569, 6.706e-4
0.570, 6.082e-4
0.569, 3.601e-4
0.568, 1.649e-4
0.567, 3.065e-5
0.566, -6.602e-5
0.565, -1.407e-4
0.564, -2.020e-4
0.563, -2.546e-4
0.562, -2.985e-4
0.561, -3.335e-4
0.560, -3.599e-4
0.559, -3.785e-4
0.558, -3.923e-4
0.557, -4.064e-4
0.556, -4.214e-4
0.555, -4.361e-4
0.554, -4.524e-4
0.553, -4.668e-4
0.552, -4.781e-4
0.551, -4.835e-4
0.550, -4.860e-4
0.549, -4.895e-4
0.548, -4.959e-4
0.547, -5.037e-4
0.546, -5.137e-4
0.545, -5.238e-4
0.544, -5.309e-4
0.543, -5.334e-4
0.542, -5.330e-4
0.541, -5.336e-4
0.540, -5.366e-4
0.539, -5.411e-4
0.538, -5.485e-4
0.537, -5.568e-4
0.536, -5.625e-4
0.535, -5.642e-4
0.534, -5.632e-4
0.533, -5.617e-4
0.532, -5.619e-4
0.531, -5.648e-4
0.530, -5.705e-4
0.529, -5.766e-4
0.528, -5.829e-4
0.527, -5.854e-4
0.526, -5.831e-4
0.525, -5.809e-4
0.524, -5.795e-4
0.523, -5.814e-4
0.522, -5.850e-4
0.521, -5.900e-4
0.520, -5.969e-4
0.519, -6.010e-4
0.518, -5.997e-4
0.517, -5.965e-4
0.516, -5.937e-4
0.515, -5.929e-4
0.514, -5.956e-4
0.513, -6.008e-4
0.512, -6.077e-4
0.511, -6.120e-4
0.510, -6.109e-4
0.509, -6.078e-4
0.508, -6.045e-4
0.507, -6.029e-4
0.506, -6.050e-4
0.505, -6.088e-4
0.504, -6.147e-4
0.503, -6.195e-4
0.502, -6.200e-4
0.501, -6.169e-4
0.500, -6.135e-4
0.499, -6.118e-4
0.498, -6.133e-4
0.497, -6.150e-4
0.496, -6.204e-4
0.495, -6.259e-4
0.494, -6.282e-4
0.493, -6.269e-4
0.492, -6.223e-4
0.491, -6.180e-4
0.490, -6.184e-4
0.489, -6.209e-4
0.488, -6.259e-4
0.487, -6.310e-4
0.486, -6.345e-4
0.485, -6.334e-4
0.484, -6.299e-4
0.483, -6.265e-4
0.482, -6.250e-4
0.481, -6.249e-4
0.480, -6.287e-4
0.479, -6.344e-4
0.478, -6.390e-4
0.477, -6.405e-4
0.476, -6.373e-4
0.475, -6.332e-4
0.474, -6.309e-4
0.473, -6.308e-4
0.472, -6.333e-4
0.471, -6.377e-4
0.470, -5.856e-4
0.471, -3.455e-4
0.472, -1.501e-4
0.473, -1.034e-5
0.474, 9.326e-5
0.475, 1.711e-4
0.476, 2.288e-4
0.477, 2.712e-4
0.478, 3.043e-4
0.479, 3.331e-4
0.480, 3.594e-4
0.481, 3.848e-4
0.482, 4.072e-4
0.483, 4.269e-4
0.484, 4.405e-4
0.485, 4.493e-4
0.486, 4.557e-4
0.487, 4.622e-4
0.488, 4.713e-4
0.489, 4.827e-4
0.490, 4.945e-4
0.491, 5.062e-4
0.492, 5.129e-4
0.493, 5.163e-4
0.494, 5.175e-4
0.495, 5.185e-4
0.496, 5.221e-4
0.497, 5.299e-4
0.498, 5.378e-4
0.499, 5.467e-4
0.500, 5.535e-4
0.501, 5.564e-4
0.502, 5.562e-4
0.503, 5.549e-4
0.504, 5.564e-4
0.505, 5.607e-4
0.506, 5.669e-4
0.507, 5.741e-4
0.508, 5.806e-4
0.509, 5.834e-4
0.510, 5.828e-4
0.511, 5.811e-4
0.512, 5.806e-4
0.513, 5.825e-4
0.514, 5.877e-4
0.515, 5.934e-4
0.516, 6.001e-4
0.517, 6.037e-4
0.518, 6.045e-4
0.519, 6.021e-4
0.520, 6.002e-4
0.521, 6.004e-4
0.522, 6.031e-4
0.523, 6.085e-4
0.524, 6.143e-4
0.525, 6.190e-4
0.526, 6.216e-4
0.527, 6.210e-4
0.528, 6.175e-4
0.529, 6.158e-4
0.530, 6.158e-4
0.531, 6.206e-4
0.532, 6.260e-4
0.533, 6.310e-4
0.534, 6.346e-4
0.535, 6.349e-4
0.536, 6.318e-4
0.537, 6.290e-4
0.538, 6.277e-4
0.539, 6.306e-4
0.540, 6.357e-4
0.541, 6.405e-4
0.542, 6.453e-4
0.543, 6.470e-4
0.544, 6.457e-4
0.545, 6.425e-4
0.546, 6.395e-4
0.547, 6.393e-4
0.548, 6.427e-4
0.549, 6.477e-4
0.550, 6.533e-4
0.551, 6.565e-4
0.552, 6.567e-4
0.553, 6.540e-4
0.554, 6.507e-4
0.555, 6.485e-4
0.556, 6.506e-4
0.557, 6.550e-4
0.558, 6.592e-4
0.559, 6.636e-4
0.560, 6.657e-4
0.561, 6.644e-4
0.562, 6.607e-4
0.563, 6.594e-4
0.564, 6.592e-4
0.565, 6.613e-4
0.566, 6.654e-4
0.567, 6.695e-4
0.568, 6.732e-4
0.569, 6.750e-4
0.570, 6.133e-4
0.569, 3.636e-4
0.568, 1.634e-4
0.567, 2.459e-5
0.566, -7.420e-5
0.565, -1.477e-4
0.564, -2.038e-4
0.563, -2.515e-4
0.562, -2.923e-4
0.561, -3.269e-4
0.560, -3.576e-4
0.559, -3.829e-4
0.558, -4.013e-4
0.557, -4.143e-4
0.556, -4.247e-4
0.555, -4.344e-4
0.554, -4.456e-4
0.553, -4.587e-4
0.552, -4.733e-4
0.551, -4.864e-4
0.550, -4.948e-4
0.549, -4.987e-4
0.548, -5.010e-4
0.547, -5.027e-4
0.546, -5.071e-4
0.545, -5.139e-4
0.544, -5.232e-4
0.543, -5.330e-4
0.542, -5.401e-4
0.541, -5.440e-4
0.540, -5.439e-4
0.539, -5.427e-4
0.538, -5.433e-4
0.537, -5.472e-4
0.536, -5.525e-4
0.535, -5.598e-4
0.534, -5.672e-4
0.533, -5.712e-4
0.532, -5.700e-4
0.531, -5.681e-4
0.530, -5.667e-4
0.529, -5.680e-4
0.528, -5.727e-4
0.527, -5.797e-4
0.526, -5.858e-4
0.525, -5.899e-4
0.524, -5.896e-4
0.523, -5.867e-4
0.522, -5.839e-4
0.521, -5.831e-4
0.520, -5.863e-4
0.519, -5.917e-4
0.518, -5.980e-4
0.517, -6.030e-4
0.516, -6.033e-4
0.515, -5.997e-4
0.514, -5.965e-4
0.513, -5.949e-4
0.512, -5.971e-4
0.511, -6.016e-4
0.510, -6.068e-4
0.509, -6.124e-4
0.508, -6.146e-4
0.507, -6.121e-4
0.506, -6.080e-4
0.505, -6.044e-4
0.504, -6.054e-4
0.503, -6.088e-4
0.502, -6.135e-4
0.501, -6.194e-4
0.500, -6.216e-4
0.499, -6.203e-4
0.498, -6.167e-4
0.497, -6.130e-4
0.496, -6.132e-4
0.495, -6.151e-4
0.494, -6.186e-4
0.493, -6.243e-4
0.492, -6.282e-4
0.491, -6.284e-4
0.490, -6.250e-4
0.489, -6.215e-4
0.488, -6.200e-4
0.487, -6.216e-4
0.486, -6.251e-4
0.485, -6.302e-4
0.484, -6.342e-4
0.483, -6.353e-4
0.482, -6.325e-4
0.481, -6.283e-4
0.480, -6.256e-4
0.479, -6.258e-4
0.478, -6.283e-4
0.477, -6.343e-4
0.476, -6.395e-4
0.475, -6.415e-4
0.474, -6.394e-4
0.473, -6.352e-4
0.472, -6.315e-4
0.471, -6.316e-4
