Nov. 23, 2024   17:53:07
Cyclic Voltammetry
File: d:\yx\20241123\6-2\cv-60.bin
Data Source:  Experiment
Instrument Model:  CHI660E
Header: 
Note: 

Init E (V) = 0.47
High E (V) = 0.57
Low E (V) = 0.47
Init P/N = P
Scan Rate (V/s) = 0.06
Segment = 10
Sample Interval (V) = 0.001
Quiet Time (sec) = 2
Sensitivity (A/V) = 0.001

Results:

Channel 1:
Segment 1:

Segment 2:

Segment 3:

Segment 4:

Segment 5:

Segment 6:

Segment 7:

Segment 8:

Segment 9:

Segment 10:

Potential/V, Current/A

0.470, 5.969e-5
0.471, 2.072e-4
0.472, 3.148e-4
0.473, 3.973e-4
0.474, 4.604e-4
0.475, 5.098e-4
0.476, 5.510e-4
0.477, 5.862e-4
0.478, 6.176e-4
0.479, 6.453e-4
0.480, 6.702e-4
0.481, 6.930e-4
0.482, 7.136e-4
0.483, 7.325e-4
0.484, 7.480e-4
0.485, 7.590e-4
0.486, 7.690e-4
0.487, 7.750e-4
0.488, 7.788e-4
0.489, 7.856e-4
0.490, 7.926e-4
0.491, 8.011e-4
0.492, 8.113e-4
0.493, 8.187e-4
0.494, 8.272e-4
0.495, 8.363e-4
0.496, 8.417e-4
0.497, 8.468e-4
0.498, 8.487e-4
0.499, 8.496e-4
0.500, 8.489e-4
0.501, 8.494e-4
0.502, 8.534e-4
0.503, 8.595e-4
0.504, 8.651e-4
0.505, 8.725e-4
0.506, 8.779e-4
0.507, 8.835e-4
0.508, 8.886e-4
0.509, 8.907e-4
0.510, 8.913e-4
0.511, 8.899e-4
0.512, 8.877e-4
0.513, 8.886e-4
0.514, 8.913e-4
0.515, 8.959e-4
0.516, 9.013e-4
0.517, 9.052e-4
0.518, 9.108e-4
0.519, 9.165e-4
0.520, 9.203e-4
0.521, 9.230e-4
0.522, 9.227e-4
0.523, 9.222e-4
0.524, 9.215e-4
0.525, 9.198e-4
0.526, 9.201e-4
0.527, 9.226e-4
0.528, 9.259e-4
0.529, 9.309e-4
0.530, 9.345e-4
0.531, 9.395e-4
0.532, 9.445e-4
0.533, 9.476e-4
0.534, 9.495e-4
0.535, 9.499e-4
0.536, 9.450e-4
0.537, 9.413e-4
0.538, 9.414e-4
0.539, 9.434e-4
0.540, 9.474e-4
0.541, 9.513e-4
0.542, 9.548e-4
0.543, 9.604e-4
0.544, 9.634e-4
0.545, 9.652e-4
0.546, 9.658e-4
0.547, 9.643e-4
0.548, 9.629e-4
0.549, 9.607e-4
0.550, 9.615e-4
0.551, 9.638e-4
0.552, 9.669e-4
0.553, 9.706e-4
0.554, 9.735e-4
0.555, 9.771e-4
0.556, 9.816e-4
0.557, 9.843e-4
0.558, 9.857e-4
0.559, 9.850e-4
0.560, 9.815e-4
0.561, 9.792e-4
0.562, 9.780e-4
0.563, 9.815e-4
0.564, 9.837e-4
0.565, 9.863e-4
0.566, 9.896e-4
0.567, 9.949e-4
0.568, 9.974e-4
0.569, 1.001e-3
0.570, 8.799e-4
0.569, 5.844e-4
0.568, 3.617e-4
0.567, 1.884e-4
0.566, 5.122e-5
0.565, -6.074e-5
0.564, -1.524e-4
0.563, -2.284e-4
0.562, -2.899e-4
0.561, -3.408e-4
0.560, -3.841e-4
0.559, -4.232e-4
0.558, -4.583e-4
0.557, -4.910e-4
0.556, -5.211e-4
0.555, -5.473e-4
0.554, -5.732e-4
0.553, -5.961e-4
0.552, -6.155e-4
0.551, -6.318e-4
0.550, -6.439e-4
0.549, -6.551e-4
0.548, -6.646e-4
0.547, -6.730e-4
0.546, -6.831e-4
0.545, -6.939e-4
0.544, -7.050e-4
0.543, -7.168e-4
0.542, -7.278e-4
0.541, -7.390e-4
0.540, -7.499e-4
0.539, -7.565e-4
0.538, -7.616e-4
0.537, -7.635e-4
0.536, -7.661e-4
0.535, -7.691e-4
0.534, -7.728e-4
0.533, -7.782e-4
0.532, -7.846e-4
0.531, -7.913e-4
0.530, -7.991e-4
0.529, -8.066e-4
0.528, -8.145e-4
0.527, -8.201e-4
0.526, -8.223e-4
0.525, -8.224e-4
0.524, -8.231e-4
0.523, -8.222e-4
0.522, -8.239e-4
0.521, -8.267e-4
0.520, -8.302e-4
0.519, -8.358e-4
0.518, -8.424e-4
0.517, -8.482e-4
0.516, -8.542e-4
0.515, -8.582e-4
0.514, -8.604e-4
0.513, -8.597e-4
0.512, -8.585e-4
0.511, -8.580e-4
0.510, -8.573e-4
0.509, -8.595e-4
0.508, -8.612e-4
0.507, -8.629e-4
0.506, -8.669e-4
0.505, -8.722e-4
0.504, -8.773e-4
0.503, -8.834e-4
0.502, -8.860e-4
0.501, -8.868e-4
0.500, -8.863e-4
0.499, -8.843e-4
0.498, -8.831e-4
0.497, -8.820e-4
0.496, -8.832e-4
0.495, -8.849e-4
0.494, -8.870e-4
0.493, -8.910e-4
0.492, -8.956e-4
0.491, -9.003e-4
0.490, -9.063e-4
0.489, -9.079e-4
0.488, -9.068e-4
0.487, -9.050e-4
0.486, -9.027e-4
0.485, -9.012e-4
0.484, -9.006e-4
0.483, -9.007e-4
0.482, -9.034e-4
0.481, -9.057e-4
0.480, -9.094e-4
0.479, -9.146e-4
0.478, -9.188e-4
0.477, -9.216e-4
0.476, -9.235e-4
0.475, -9.208e-4
0.474, -9.190e-4
0.473, -9.188e-4
0.472, -9.160e-4
0.471, -9.161e-4
0.470, -7.964e-4
0.471, -5.063e-4
0.472, -2.945e-4
0.473, -1.324e-4
0.474, -4.465e-6
0.475, 9.979e-5
0.476, 1.873e-4
0.477, 2.620e-4
0.478, 3.269e-4
0.479, 3.827e-4
0.480, 4.306e-4
0.481, 4.733e-4
0.482, 5.088e-4
0.483, 5.387e-4
0.484, 5.637e-4
0.485, 5.834e-4
0.486, 6.014e-4
0.487, 6.182e-4
0.488, 6.328e-4
0.489, 6.485e-4
0.490, 6.643e-4
0.491, 6.802e-4
0.492, 6.951e-4
0.493, 7.074e-4
0.494, 7.196e-4
0.495, 7.295e-4
0.496, 7.361e-4
0.497, 7.426e-4
0.498, 7.475e-4
0.499, 7.519e-4
0.500, 7.572e-4
0.501, 7.622e-4
0.502, 7.691e-4
0.503, 7.776e-4
0.504, 7.850e-4
0.505, 7.935e-4
0.506, 8.018e-4
0.507, 8.090e-4
0.508, 8.152e-4
0.509, 8.183e-4
0.510, 8.202e-4
0.511, 8.214e-4
0.512, 8.214e-4
0.513, 8.244e-4
0.514, 8.277e-4
0.515, 8.324e-4
0.516, 8.396e-4
0.517, 8.447e-4
0.518, 8.523e-4
0.519, 8.592e-4
0.520, 8.628e-4
0.521, 8.664e-4
0.522, 8.671e-4
0.523, 8.681e-4
0.524, 8.684e-4
0.525, 8.683e-4
0.526, 8.694e-4
0.527, 8.726e-4
0.528, 8.764e-4
0.529, 8.826e-4
0.530, 8.872e-4
0.531, 8.935e-4
0.532, 8.989e-4
0.533, 9.004e-4
0.534, 9.015e-4
0.535, 9.034e-4
0.536, 9.016e-4
0.537, 9.016e-4
0.538, 9.014e-4
0.539, 9.025e-4
0.540, 9.057e-4
0.541, 9.105e-4
0.542, 9.166e-4
0.543, 9.220e-4
0.544, 9.268e-4
0.545, 9.304e-4
0.546, 9.321e-4
0.547, 9.321e-4
0.548, 9.317e-4
0.549, 9.297e-4
0.550, 9.296e-4
0.551, 9.305e-4
0.552, 9.306e-4
0.553, 9.346e-4
0.554, 9.392e-4
0.555, 9.429e-4
0.556, 9.492e-4
0.557, 9.542e-4
0.558, 9.571e-4
0.559, 9.583e-4
0.560, 9.563e-4
0.561, 9.543e-4
0.562, 9.519e-4
0.563, 9.525e-4
0.564, 9.549e-4
0.565, 9.565e-4
0.566, 9.608e-4
0.567, 9.659e-4
0.568, 9.690e-4
0.569, 9.754e-4
0.570, 8.556e-4
0.569, 5.606e-4
0.568, 3.401e-4
0.567, 1.688e-4
0.566, 3.170e-5
0.565, -8.130e-5
0.564, -1.738e-4
0.563, -2.511e-4
0.562, -3.130e-4
0.561, -3.637e-4
0.560, -4.073e-4
0.559, -4.449e-4
0.558, -4.774e-4
0.557, -5.082e-4
0.556, -5.366e-4
0.555, -5.628e-4
0.554, -5.879e-4
0.553, -6.107e-4
0.552, -6.311e-4
0.551, -6.490e-4
0.550, -6.615e-4
0.549, -6.722e-4
0.548, -6.815e-4
0.547, -6.892e-4
0.546, -6.977e-4
0.545, -7.062e-4
0.544, -7.164e-4
0.543, -7.265e-4
0.542, -7.367e-4
0.541, -7.489e-4
0.540, -7.604e-4
0.539, -7.681e-4
0.538, -7.742e-4
0.537, -7.768e-4
0.536, -7.787e-4
0.535, -7.820e-4
0.534, -7.840e-4
0.533, -7.881e-4
0.532, -7.940e-4
0.531, -7.990e-4
0.530, -8.046e-4
0.529, -8.117e-4
0.528, -8.195e-4
0.527, -8.275e-4
0.526, -8.319e-4
0.525, -8.338e-4
0.524, -8.334e-4
0.523, -8.332e-4
0.522, -8.334e-4
0.521, -8.346e-4
0.520, -8.358e-4
0.519, -8.403e-4
0.518, -8.446e-4
0.517, -8.499e-4
0.516, -8.573e-4
0.515, -8.635e-4
0.514, -8.689e-4
0.513, -8.706e-4
0.512, -8.688e-4
0.511, -8.674e-4
0.510, -8.656e-4
0.509, -8.664e-4
0.508, -8.677e-4
0.507, -8.689e-4
0.506, -8.726e-4
0.505, -8.769e-4
0.504, -8.818e-4
0.503, -8.874e-4
0.502, -8.910e-4
0.501, -8.927e-4
0.500, -8.933e-4
0.499, -8.914e-4
0.498, -8.898e-4
0.497, -8.878e-4
0.496, -8.879e-4
0.495, -8.911e-4
0.494, -8.932e-4
0.493, -8.966e-4
0.492, -9.011e-4
0.491, -9.051e-4
0.490, -9.090e-4
0.489, -9.116e-4
0.488, -9.120e-4
0.487, -9.106e-4
0.486, -9.078e-4
0.485, -9.061e-4
0.484, -9.057e-4
0.483, -9.055e-4
0.482, -9.080e-4
0.481, -9.101e-4
0.480, -9.141e-4
0.479, -9.183e-4
0.478, -9.223e-4
0.477, -9.258e-4
0.476, -9.283e-4
0.475, -9.265e-4
0.474, -9.249e-4
0.473, -9.214e-4
0.472, -9.187e-4
0.471, -9.193e-4
0.470, -8.000e-4
0.471, -5.091e-4
0.472, -2.979e-4
0.473, -1.359e-4
0.474, -8.138e-6
0.475, 9.667e-5
0.476, 1.844e-4
0.477, 2.588e-4
0.478, 3.238e-4
0.479, 3.798e-4
0.480, 4.285e-4
0.481, 4.714e-4
0.482, 5.063e-4
0.483, 5.357e-4
0.484, 5.604e-4
0.485, 5.786e-4
0.486, 5.959e-4
0.487, 6.125e-4
0.488, 6.291e-4
0.489, 6.457e-4
0.490, 6.629e-4
0.491, 6.776e-4
0.492, 6.928e-4
0.493, 7.065e-4
0.494, 7.176e-4
0.495, 7.269e-4
0.496, 7.336e-4
0.497, 7.382e-4
0.498, 7.417e-4
0.499, 7.469e-4
0.500, 7.536e-4
0.501, 7.599e-4
0.502, 7.686e-4
0.503, 7.776e-4
0.504, 7.847e-4
0.505, 7.942e-4
0.506, 8.018e-4
0.507, 8.065e-4
0.508, 8.103e-4
0.509, 8.118e-4
0.510, 8.123e-4
0.511, 8.131e-4
0.512, 8.161e-4
0.513, 8.208e-4
0.514, 8.269e-4
0.515, 8.335e-4
0.516, 8.398e-4
0.517, 8.464e-4
0.518, 8.536e-4
0.519, 8.589e-4
0.520, 8.608e-4
0.521, 8.608e-4
0.522, 8.592e-4
0.523, 8.584e-4
0.524, 8.591e-4
0.525, 8.622e-4
0.526, 8.671e-4
0.527, 8.732e-4
0.528, 8.789e-4
0.529, 8.844e-4
0.530, 8.902e-4
0.531, 8.937e-4
0.532, 8.967e-4
0.533, 8.963e-4
0.534, 8.962e-4
0.535, 8.953e-4
0.536, 8.944e-4
0.537, 8.963e-4
0.538, 8.992e-4
0.539, 9.031e-4
0.540, 9.082e-4
0.541, 9.131e-4
0.542, 9.187e-4
0.543, 9.237e-4
0.544, 9.258e-4
0.545, 9.263e-4
0.546, 9.253e-4
0.547, 9.226e-4
0.548, 9.223e-4
0.549, 9.223e-4
0.550, 9.250e-4
0.551, 9.293e-4
0.552, 9.322e-4
0.553, 9.378e-4
0.554, 9.429e-4
0.555, 9.466e-4
0.556, 9.505e-4
0.557, 9.508e-4
0.558, 9.492e-4
0.559, 9.474e-4
0.560, 9.446e-4
0.561, 9.456e-4
0.562, 9.472e-4
0.563, 9.524e-4
0.564, 9.580e-4
0.565, 9.610e-4
0.566, 9.655e-4
0.567, 9.695e-4
0.568, 9.712e-4
0.569, 9.730e-4
0.570, 8.499e-4
0.569, 5.519e-4
0.568, 3.307e-4
0.567, 1.593e-4
0.566, 2.401e-5
0.565, -8.497e-5
0.564, -1.732e-4
0.563, -2.469e-4
0.562, -3.068e-4
0.561, -3.579e-4
0.560, -4.029e-4
0.559, -4.447e-4
0.558, -4.801e-4
0.557, -5.134e-4
0.556, -5.443e-4
0.555, -5.714e-4
0.554, -5.953e-4
0.553, -6.149e-4
0.552, -6.301e-4
0.551, -6.437e-4
0.550, -6.544e-4
0.549, -6.640e-4
0.548, -6.754e-4
0.547, -6.869e-4
0.546, -6.986e-4
0.545, -7.099e-4
0.544, -7.223e-4
0.543, -7.356e-4
0.542, -7.459e-4
0.541, -7.543e-4
0.540, -7.603e-4
0.539, -7.625e-4
0.538, -7.662e-4
0.537, -7.686e-4
0.536, -7.726e-4
0.535, -7.791e-4
0.534, -7.850e-4
0.533, -7.921e-4
0.532, -7.990e-4
0.531, -8.068e-4
0.530, -8.150e-4
0.529, -8.207e-4
0.528, -8.235e-4
0.527, -8.245e-4
0.526, -8.247e-4
0.525, -8.258e-4
0.524, -8.268e-4
0.523, -8.280e-4
0.522, -8.328e-4
0.521, -8.363e-4
0.520, -8.417e-4
0.519, -8.484e-4
0.518, -8.544e-4
0.517, -8.602e-4
0.516, -8.629e-4
0.515, -8.622e-4
0.514, -8.615e-4
0.513, -8.609e-4
0.512, -8.602e-4
0.511, -8.610e-4
0.510, -8.628e-4
0.509, -8.657e-4
0.508, -8.694e-4
0.507, -8.742e-4
0.506, -8.805e-4
0.505, -8.857e-4
0.504, -8.884e-4
0.503, -8.894e-4
0.502, -8.877e-4
0.501, -8.863e-4
0.500, -8.846e-4
0.499, -8.835e-4
0.498, -8.839e-4
0.497, -8.861e-4
0.496, -8.888e-4
0.495, -8.937e-4
0.494, -8.990e-4
0.493, -9.049e-4
0.492, -9.074e-4
0.491, -9.081e-4
0.490, -9.088e-4
0.489, -9.072e-4
0.488, -9.052e-4
0.487, -9.042e-4
0.486, -9.039e-4
0.485, -9.048e-4
0.484, -9.061e-4
0.483, -9.073e-4
0.482, -9.105e-4
0.481, -9.159e-4
0.480, -9.208e-4
0.479, -9.240e-4
0.478, -9.241e-4
0.477, -9.233e-4
0.476, -9.219e-4
0.475, -9.198e-4
0.474, -9.179e-4
0.473, -9.182e-4
0.472, -9.192e-4
0.471, -9.215e-4
0.470, -8.035e-4
0.471, -5.153e-4
0.472, -3.043e-4
0.473, -1.416e-4
0.474, -1.101e-5
0.475, 9.656e-5
0.476, 1.875e-4
0.477, 2.639e-4
0.478, 3.293e-4
0.479, 3.846e-4
0.480, 4.311e-4
0.481, 4.709e-4
0.482, 5.039e-4
0.483, 5.304e-4
0.484, 5.544e-4
0.485, 5.738e-4
0.486, 5.931e-4
0.487, 6.118e-4
0.488, 6.296e-4
0.489, 6.486e-4
0.490, 6.649e-4
0.491, 6.803e-4
0.492, 6.945e-4
0.493, 7.061e-4
0.494, 7.152e-4
0.495, 7.232e-4
0.496, 7.287e-4
0.497, 7.347e-4
0.498, 7.397e-4
0.499, 7.458e-4
0.500, 7.533e-4
0.501, 7.608e-4
0.502, 7.702e-4
0.503, 7.786e-4
0.504, 7.868e-4
0.505, 7.945e-4
0.506, 8.006e-4
0.507, 8.044e-4
0.508, 8.076e-4
0.509, 8.085e-4
0.510, 8.100e-4
0.511, 8.120e-4
0.512, 8.152e-4
0.513, 8.216e-4
0.514, 8.290e-4
0.515, 8.347e-4
0.516, 8.400e-4
0.517, 8.471e-4
0.518, 8.528e-4
0.519, 8.560e-4
0.520, 8.575e-4
0.521, 8.581e-4
0.522, 8.580e-4
0.523, 8.576e-4
0.524, 8.598e-4
0.525, 8.624e-4
0.526, 8.674e-4
0.527, 8.740e-4
0.528, 8.792e-4
0.529, 8.843e-4
0.530, 8.884e-4
0.531, 8.917e-4
0.532, 8.953e-4
0.533, 8.955e-4
0.534, 8.965e-4
0.535, 8.953e-4
0.536, 8.938e-4
0.537, 8.951e-4
0.538, 8.973e-4
0.539, 9.014e-4
0.540, 9.074e-4
0.541, 9.112e-4
0.542, 9.163e-4
0.543, 9.211e-4
0.544, 9.239e-4
0.545, 9.254e-4
0.546, 9.259e-4
0.547, 9.257e-4
0.548, 9.251e-4
0.549, 9.227e-4
0.550, 9.239e-4
0.551, 9.266e-4
0.552, 9.286e-4
0.553, 9.346e-4
0.554, 9.397e-4
0.555, 9.449e-4
0.556, 9.496e-4
0.557, 9.515e-4
0.558, 9.511e-4
0.559, 9.503e-4
0.560, 9.479e-4
0.561, 9.463e-4
0.562, 9.459e-4
0.563, 9.493e-4
0.564, 9.525e-4
0.565, 9.554e-4
0.566, 9.591e-4
0.567, 9.641e-4
0.568, 9.671e-4
0.569, 9.695e-4
0.570, 8.488e-4
0.569, 5.536e-4
0.568, 3.334e-4
0.567, 1.620e-4
0.566, 2.595e-5
0.565, -8.501e-5
0.564, -1.766e-4
0.563, -2.526e-4
0.562, -3.132e-4
0.561, -3.639e-4
0.560, -4.070e-4
0.559, -4.452e-4
0.558, -4.784e-4
0.557, -5.098e-4
0.556, -5.405e-4
0.555, -5.676e-4
0.554, -5.921e-4
0.553, -6.135e-4
0.552, -6.325e-4
0.551, -6.494e-4
0.550, -6.615e-4
0.549, -6.721e-4
0.548, -6.812e-4
0.547, -6.892e-4
0.546, -6.977e-4
0.545, -7.075e-4
0.544, -7.177e-4
0.543, -7.283e-4
0.542, -7.378e-4
0.541, -7.494e-4
0.540, -7.601e-4
0.539, -7.679e-4
0.538, -7.746e-4
0.537, -7.789e-4
0.536, -7.819e-4
0.535, -7.849e-4
0.534, -7.878e-4
0.533, -7.913e-4
0.532, -7.948e-4
0.531, -7.985e-4
0.530, -8.057e-4
0.529, -8.133e-4
0.528, -8.201e-4
0.527, -8.264e-4
0.526, -8.304e-4
0.525, -8.338e-4
0.524, -8.341e-4
0.523, -8.340e-4
0.522, -8.356e-4
0.521, -8.362e-4
0.520, -8.376e-4
0.519, -8.404e-4
0.518, -8.429e-4
0.517, -8.489e-4
0.516, -8.555e-4
0.515, -8.620e-4
0.514, -8.667e-4
0.513, -8.702e-4
0.512, -8.702e-4
0.511, -8.692e-4
0.510, -8.685e-4
0.509, -8.680e-4
0.508, -8.672e-4
0.507, -8.676e-4
0.506, -8.697e-4
0.505, -8.740e-4
0.504, -8.785e-4
0.503, -8.845e-4
0.502, -8.898e-4
0.501, -8.938e-4
0.500, -8.953e-4
0.499, -8.939e-4
0.498, -8.934e-4
0.497, -8.924e-4
0.496, -8.905e-4
0.495, -8.904e-4
0.494, -8.912e-4
0.493, -8.925e-4
0.492, -8.970e-4
0.491, -9.004e-4
0.490, -9.048e-4
0.489, -9.089e-4
0.488, -9.116e-4
0.487, -9.141e-4
0.486, -9.121e-4
0.485, -9.107e-4
0.484, -9.099e-4
0.483, -9.081e-4
0.482, -9.078e-4
0.481, -9.090e-4
0.480, -9.114e-4
0.479, -9.144e-4
0.478, -9.176e-4
0.477, -9.217e-4
0.476, -9.257e-4
0.475, -9.279e-4
0.474, -9.297e-4
0.473, -9.281e-4
0.472, -9.255e-4
0.471, -9.244e-4
0.470, -8.017e-4
0.471, -5.099e-4
0.472, -2.951e-4
0.473, -1.311e-4
0.474, -2.387e-6
0.475, 1.010e-4
0.476, 1.867e-4
0.477, 2.578e-4
0.478, 3.199e-4
0.479, 3.742e-4
0.480, 4.227e-4
0.481, 4.647e-4
0.482, 5.013e-4
0.483, 5.345e-4
0.484, 5.619e-4
0.485, 5.839e-4
0.486, 6.032e-4
0.487, 6.197e-4
0.488, 6.332e-4
0.489, 6.464e-4
0.490, 6.586e-4
0.491, 6.711e-4
0.492, 6.858e-4
0.493, 6.992e-4
0.494, 7.118e-4
0.495, 7.243e-4
0.496, 7.336e-4
0.497, 7.425e-4
0.498, 7.496e-4
0.499, 7.547e-4
0.500, 7.595e-4
0.501, 7.624e-4
0.502, 7.659e-4
0.503, 7.713e-4
0.504, 7.767e-4
0.505, 7.842e-4
0.506, 7.921e-4
0.507, 7.994e-4
0.508, 8.080e-4
0.509, 8.143e-4
0.510, 8.188e-4
0.511, 8.224e-4
0.512, 8.248e-4
0.513, 8.260e-4
0.514, 8.265e-4
0.515, 8.291e-4
0.516, 8.327e-4
0.517, 8.367e-4
0.518, 8.425e-4
0.519, 8.487e-4
0.520, 8.551e-4
0.521, 8.625e-4
0.522, 8.671e-4
0.523, 8.690e-4
0.524, 8.694e-4
0.525, 8.689e-4
0.526, 8.689e-4
0.527, 8.699e-4
0.528, 8.716e-4
0.529, 8.755e-4
0.530, 8.795e-4
0.531, 8.844e-4
0.532, 8.898e-4
0.533, 8.940e-4
0.534, 8.986e-4
0.535, 9.028e-4
0.536, 9.031e-4
0.537, 9.042e-4
0.538, 9.029e-4
0.539, 9.015e-4
0.540, 9.025e-4
0.541, 9.035e-4
0.542, 9.067e-4
0.543, 9.116e-4
0.544, 9.153e-4
0.545, 9.203e-4
0.546, 9.248e-4
0.547, 9.282e-4
0.548, 9.315e-4
0.549, 9.311e-4
0.550, 9.312e-4
0.551, 9.297e-4
0.552, 9.286e-4
0.553, 9.301e-4
0.554, 9.316e-4
0.555, 9.346e-4
0.556, 9.391e-4
0.557, 9.427e-4
0.558, 9.480e-4
0.559, 9.523e-4
0.560, 9.546e-4
0.561, 9.559e-4
0.562, 9.543e-4
0.563, 9.525e-4
0.564, 9.524e-4
0.565, 9.516e-4
0.566, 9.526e-4
0.567, 9.559e-4
0.568, 9.592e-4
0.569, 9.636e-4
0.570, 8.456e-4
0.569, 5.544e-4
0.568, 3.376e-4
0.567, 1.682e-4
0.566, 3.229e-5
0.565, -7.939e-5
0.564, -1.729e-4
0.563, -2.529e-4
0.562, -3.186e-4
0.561, -3.724e-4
0.560, -4.158e-4
0.559, -4.533e-4
0.558, -4.838e-4
0.557, -5.121e-4
0.556, -5.375e-4
0.555, -5.599e-4
0.554, -5.835e-4
0.553, -6.048e-4
0.552, -6.260e-4
0.551, -6.462e-4
0.550, -6.632e-4
0.549, -6.786e-4
0.548, -6.903e-4
0.547, -6.968e-4
0.546, -7.035e-4
0.545, -7.096e-4
0.544, -7.166e-4
0.543, -7.252e-4
0.542, -7.330e-4
0.541, -7.429e-4
0.540, -7.530e-4
0.539, -7.624e-4
0.538, -7.720e-4
0.537, -7.804e-4
0.536, -7.858e-4
0.535, -7.897e-4
0.534, -7.915e-4
0.533, -7.928e-4
0.532, -7.948e-4
0.531, -7.978e-4
0.530, -8.032e-4
0.529, -8.076e-4
0.528, -8.125e-4
0.527, -8.196e-4
0.526, -8.270e-4
0.525, -8.338e-4
0.524, -8.394e-4
0.523, -8.411e-4
0.522, -8.416e-4
0.521, -8.417e-4
0.520, -8.408e-4
0.519, -8.416e-4
0.518, -8.424e-4
0.517, -8.452e-4
0.516, -8.496e-4
0.515, -8.543e-4
0.514, -8.615e-4
0.513, -8.676e-4
0.512, -8.723e-4
0.511, -8.748e-4
0.510, -8.731e-4
0.509, -8.713e-4
0.508, -8.709e-4
0.507, -8.682e-4
0.506, -8.705e-4
0.505, -8.737e-4
0.504, -8.770e-4
0.503, -8.821e-4
0.502, -8.860e-4
0.501, -8.907e-4
0.500, -8.945e-4
0.499, -8.961e-4
0.498, -8.957e-4
0.497, -8.936e-4
0.496, -8.918e-4
0.495, -8.912e-4
0.494, -8.900e-4
0.493, -8.922e-4
0.492, -8.950e-4
0.491, -8.975e-4
0.490, -9.014e-4
0.489, -9.068e-4
0.488, -9.115e-4
0.487, -9.143e-4
0.486, -9.137e-4
0.485, -9.117e-4
0.484, -9.094e-4
0.483, -9.066e-4
0.482, -9.069e-4
0.481, -9.082e-4
0.480, -9.099e-4
0.479, -9.122e-4
0.478, -9.153e-4
0.477, -9.210e-4
0.476, -9.268e-4
0.475, -9.284e-4
0.474, -9.290e-4
0.473, -9.280e-4
0.472, -9.248e-4
0.471, -9.230e-4
