Nov. 23, 2024   17:53:24
Cyclic Voltammetry
File: d:\yx\20241123\6-2\cv-80.bin
Data Source:  Experiment
Instrument Model:  CHI660E
Header: 
Note: 

Init E (V) = 0.47
High E (V) = 0.57
Low E (V) = 0.47
Init P/N = P
Scan Rate (V/s) = 0.08
Segment = 10
Sample Interval (V) = 0.001
Quiet Time (sec) = 2
Sensitivity (A/V) = 0.001

Results:

Channel 1:
Segment 1:

Segment 2:

Segment 3:

Segment 4:

Segment 5:

Segment 6:

Segment 7:

Segment 8:

Segment 9:

Segment 10:

Potential/V, Current/A

0.470, 4.994e-5
0.471, 2.029e-4
0.472, 3.247e-4
0.473, 4.229e-4
0.474, 5.056e-4
0.475, 5.758e-4
0.476, 6.367e-4
0.477, 6.891e-4
0.478, 7.344e-4
0.479, 7.756e-4
0.480, 8.125e-4
0.481, 8.436e-4
0.482, 8.710e-4
0.483, 8.948e-4
0.484, 9.151e-4
0.485, 9.312e-4
0.486, 9.453e-4
0.487, 9.579e-4
0.488, 9.701e-4
0.489, 9.819e-4
0.490, 9.947e-4
0.491, 1.008e-3
0.492, 1.020e-3
0.493, 1.032e-3
0.494, 1.043e-3
0.495, 1.053e-3
0.496, 1.064e-3
0.497, 1.074e-3
0.498, 1.083e-3
0.499, 1.089e-3
0.500, 1.094e-3
0.501, 1.096e-3
0.502, 1.097e-3
0.503, 1.100e-3
0.504, 1.103e-3
0.505, 1.108e-3
0.506, 1.112e-3
0.507, 1.118e-3
0.508, 1.124e-3
0.509, 1.131e-3
0.510, 1.136e-3
0.511, 1.142e-3
0.512, 1.148e-3
0.513, 1.155e-3
0.514, 1.161e-3
0.515, 1.164e-3
0.516, 1.166e-3
0.517, 1.167e-3
0.518, 1.166e-3
0.519, 1.167e-3
0.520, 1.168e-3
0.521, 1.171e-3
0.522, 1.173e-3
0.523, 1.177e-3
0.524, 1.182e-3
0.525, 1.186e-3
0.526, 1.192e-3
0.527, 1.197e-3
0.528, 1.202e-3
0.529, 1.208e-3
0.530, 1.212e-3
0.531, 1.213e-3
0.532, 1.215e-3
0.533, 1.215e-3
0.534, 1.214e-3
0.535, 1.213e-3
0.536, 1.213e-3
0.537, 1.215e-3
0.538, 1.219e-3
0.539, 1.221e-3
0.540, 1.226e-3
0.541, 1.229e-3
0.542, 1.232e-3
0.543, 1.235e-3
0.544, 1.240e-3
0.545, 1.246e-3
0.546, 1.250e-3
0.547, 1.252e-3
0.548, 1.253e-3
0.549, 1.253e-3
0.550, 1.252e-3
0.551, 1.250e-3
0.552, 1.248e-3
0.553, 1.249e-3
0.554, 1.252e-3
0.555, 1.255e-3
0.556, 1.260e-3
0.557, 1.265e-3
0.558, 1.269e-3
0.559, 1.271e-3
0.560, 1.276e-3
0.561, 1.280e-3
0.562, 1.283e-3
0.563, 1.286e-3
0.564, 1.288e-3
0.565, 1.287e-3
0.566, 1.284e-3
0.567, 1.283e-3
0.568, 1.285e-3
0.569, 1.284e-3
0.570, 1.175e-3
0.569, 8.600e-4
0.568, 6.086e-4
0.567, 4.071e-4
0.566, 2.412e-4
0.565, 1.024e-4
0.564, -1.597e-5
0.563, -1.193e-4
0.562, -2.084e-4
0.561, -2.873e-4
0.560, -3.576e-4
0.559, -4.203e-4
0.558, -4.761e-4
0.557, -5.279e-4
0.556, -5.734e-4
0.555, -6.135e-4
0.554, -6.505e-4
0.553, -6.814e-4
0.552, -7.082e-4
0.551, -7.314e-4
0.550, -7.529e-4
0.549, -7.722e-4
0.548, -7.905e-4
0.547, -8.081e-4
0.546, -8.256e-4
0.545, -8.424e-4
0.544, -8.588e-4
0.543, -8.733e-4
0.542, -8.877e-4
0.541, -9.027e-4
0.540, -9.177e-4
0.539, -9.309e-4
0.538, -9.430e-4
0.537, -9.536e-4
0.536, -9.619e-4
0.535, -9.684e-4
0.534, -9.747e-4
0.533, -9.787e-4
0.532, -9.828e-4
0.531, -9.896e-4
0.530, -9.977e-4
0.529, -1.005e-3
0.528, -1.013e-3
0.527, -1.021e-3
0.526, -1.029e-3
0.525, -1.037e-3
0.524, -1.046e-3
0.523, -1.054e-3
0.522, -1.059e-3
0.521, -1.064e-3
0.520, -1.067e-3
0.519, -1.069e-3
0.518, -1.070e-3
0.517, -1.071e-3
0.516, -1.072e-3
0.515, -1.075e-3
0.514, -1.079e-3
0.513, -1.083e-3
0.512, -1.088e-3
0.511, -1.092e-3
0.510, -1.097e-3
0.509, -1.103e-3
0.508, -1.109e-3
0.507, -1.115e-3
0.506, -1.121e-3
0.505, -1.124e-3
0.504, -1.125e-3
0.503, -1.127e-3
0.502, -1.127e-3
0.501, -1.127e-3
0.500, -1.127e-3
0.499, -1.127e-3
0.498, -1.129e-3
0.497, -1.132e-3
0.496, -1.137e-3
0.495, -1.141e-3
0.494, -1.145e-3
0.493, -1.150e-3
0.492, -1.155e-3
0.491, -1.158e-3
0.490, -1.161e-3
0.489, -1.164e-3
0.488, -1.164e-3
0.487, -1.163e-3
0.486, -1.162e-3
0.485, -1.161e-3
0.484, -1.160e-3
0.483, -1.161e-3
0.482, -1.164e-3
0.481, -1.166e-3
0.480, -1.169e-3
0.479, -1.173e-3
0.478, -1.177e-3
0.477, -1.182e-3
0.476, -1.187e-3
0.475, -1.191e-3
0.474, -1.193e-3
0.473, -1.195e-3
0.472, -1.195e-3
0.471, -1.194e-3
0.470, -1.082e-3
0.471, -7.679e-4
0.472, -5.178e-4
0.473, -3.184e-4
0.474, -1.543e-4
0.475, -1.799e-5
0.476, 9.798e-5
0.477, 1.971e-4
0.478, 2.810e-4
0.479, 3.539e-4
0.480, 4.185e-4
0.481, 4.757e-4
0.482, 5.278e-4
0.483, 5.750e-4
0.484, 6.178e-4
0.485, 6.569e-4
0.486, 6.929e-4
0.487, 7.255e-4
0.488, 7.552e-4
0.489, 7.824e-4
0.490, 8.066e-4
0.491, 8.278e-4
0.492, 8.450e-4
0.493, 8.613e-4
0.494, 8.735e-4
0.495, 8.857e-4
0.496, 8.968e-4
0.497, 9.083e-4
0.498, 9.210e-4
0.499, 9.332e-4
0.500, 9.462e-4
0.501, 9.580e-4
0.502, 9.692e-4
0.503, 9.796e-4
0.504, 9.916e-4
0.505, 1.003e-3
0.506, 1.012e-3
0.507, 1.019e-3
0.508, 1.025e-3
0.509, 1.030e-3
0.510, 1.035e-3
0.511, 1.037e-3
0.512, 1.041e-3
0.513, 1.047e-3
0.514, 1.052e-3
0.515, 1.059e-3
0.516, 1.065e-3
0.517, 1.071e-3
0.518, 1.077e-3
0.519, 1.085e-3
0.520, 1.093e-3
0.521, 1.101e-3
0.522, 1.106e-3
0.523, 1.111e-3
0.524, 1.115e-3
0.525, 1.116e-3
0.526, 1.117e-3
0.527, 1.118e-3
0.528, 1.118e-3
0.529, 1.121e-3
0.530, 1.125e-3
0.531, 1.131e-3
0.532, 1.137e-3
0.533, 1.143e-3
0.534, 1.148e-3
0.535, 1.153e-3
0.536, 1.159e-3
0.537, 1.165e-3
0.538, 1.169e-3
0.539, 1.173e-3
0.540, 1.175e-3
0.541, 1.175e-3
0.542, 1.174e-3
0.543, 1.173e-3
0.544, 1.173e-3
0.545, 1.176e-3
0.546, 1.180e-3
0.547, 1.185e-3
0.548, 1.191e-3
0.549, 1.194e-3
0.550, 1.198e-3
0.551, 1.203e-3
0.552, 1.209e-3
0.553, 1.213e-3
0.554, 1.218e-3
0.555, 1.221e-3
0.556, 1.222e-3
0.557, 1.221e-3
0.558, 1.220e-3
0.559, 1.220e-3
0.560, 1.221e-3
0.561, 1.224e-3
0.562, 1.225e-3
0.563, 1.230e-3
0.564, 1.236e-3
0.565, 1.240e-3
0.566, 1.243e-3
0.567, 1.246e-3
0.568, 1.252e-3
0.569, 1.256e-3
0.570, 1.147e-3
0.569, 8.326e-4
0.568, 5.802e-4
0.567, 3.760e-4
0.566, 2.057e-4
0.565, 6.281e-5
0.564, -5.941e-5
0.563, -1.656e-4
0.562, -2.555e-4
0.561, -3.326e-4
0.560, -3.997e-4
0.559, -4.577e-4
0.558, -5.083e-4
0.557, -5.540e-4
0.556, -5.940e-4
0.555, -6.301e-4
0.554, -6.632e-4
0.553, -6.943e-4
0.552, -7.233e-4
0.551, -7.506e-4
0.550, -7.764e-4
0.549, -7.998e-4
0.548, -8.226e-4
0.547, -8.440e-4
0.546, -8.635e-4
0.545, -8.786e-4
0.544, -8.920e-4
0.543, -9.036e-4
0.542, -9.129e-4
0.541, -9.214e-4
0.540, -9.307e-4
0.539, -9.398e-4
0.538, -9.507e-4
0.537, -9.607e-4
0.536, -9.707e-4
0.535, -9.800e-4
0.534, -9.892e-4
0.533, -9.992e-4
0.532, -1.009e-3
0.531, -1.019e-3
0.530, -1.028e-3
0.529, -1.035e-3
0.528, -1.041e-3
0.527, -1.043e-3
0.526, -1.046e-3
0.525, -1.048e-3
0.524, -1.051e-3
0.523, -1.054e-3
0.522, -1.059e-3
0.521, -1.064e-3
0.520, -1.070e-3
0.519, -1.076e-3
0.518, -1.081e-3
0.517, -1.088e-3
0.516, -1.093e-3
0.515, -1.101e-3
0.514, -1.107e-3
0.513, -1.111e-3
0.512, -1.113e-3
0.511, -1.114e-3
0.510, -1.114e-3
0.509, -1.115e-3
0.508, -1.116e-3
0.507, -1.117e-3
0.506, -1.119e-3
0.505, -1.122e-3
0.504, -1.126e-3
0.503, -1.130e-3
0.502, -1.133e-3
0.501, -1.139e-3
0.500, -1.143e-3
0.499, -1.147e-3
0.498, -1.152e-3
0.497, -1.155e-3
0.496, -1.158e-3
0.495, -1.159e-3
0.494, -1.158e-3
0.493, -1.159e-3
0.492, -1.158e-3
0.491, -1.158e-3
0.490, -1.159e-3
0.489, -1.161e-3
0.488, -1.164e-3
0.487, -1.166e-3
0.486, -1.169e-3
0.485, -1.174e-3
0.484, -1.178e-3
0.483, -1.182e-3
0.482, -1.186e-3
0.481, -1.189e-3
0.480, -1.191e-3
0.479, -1.191e-3
0.478, -1.189e-3
0.477, -1.189e-3
0.476, -1.188e-3
0.475, -1.187e-3
0.474, -1.187e-3
0.473, -1.188e-3
0.472, -1.191e-3
0.471, -1.193e-3
0.470, -1.084e-3
0.471, -7.752e-4
0.472, -5.312e-4
0.473, -3.361e-4
0.474, -1.750e-4
0.475, -3.867e-5
0.476, 7.879e-5
0.477, 1.810e-4
0.478, 2.709e-4
0.479, 3.494e-4
0.480, 4.189e-4
0.481, 4.807e-4
0.482, 5.343e-4
0.483, 5.817e-4
0.484, 6.218e-4
0.485, 6.575e-4
0.486, 6.896e-4
0.487, 7.175e-4
0.488, 7.417e-4
0.489, 7.649e-4
0.490, 7.871e-4
0.491, 8.084e-4
0.492, 8.283e-4
0.493, 8.488e-4
0.494, 8.673e-4
0.495, 8.832e-4
0.496, 8.994e-4
0.497, 9.148e-4
0.498, 9.280e-4
0.499, 9.405e-4
0.500, 9.514e-4
0.501, 9.614e-4
0.502, 9.689e-4
0.503, 9.734e-4
0.504, 9.790e-4
0.505, 9.852e-4
0.506, 9.924e-4
0.507, 1.001e-3
0.508, 1.009e-3
0.509, 1.017e-3
0.510, 1.027e-3
0.511, 1.036e-3
0.512, 1.044e-3
0.513, 1.053e-3
0.514, 1.060e-3
0.515, 1.067e-3
0.516, 1.073e-3
0.517, 1.076e-3
0.518, 1.078e-3
0.519, 1.079e-3
0.520, 1.079e-3
0.521, 1.082e-3
0.522, 1.086e-3
0.523, 1.091e-3
0.524, 1.098e-3
0.525, 1.104e-3
0.526, 1.110e-3
0.527, 1.115e-3
0.528, 1.121e-3
0.529, 1.127e-3
0.530, 1.134e-3
0.531, 1.139e-3
0.532, 1.142e-3
0.533, 1.144e-3
0.534, 1.145e-3
0.535, 1.145e-3
0.536, 1.146e-3
0.537, 1.148e-3
0.538, 1.151e-3
0.539, 1.154e-3
0.540, 1.158e-3
0.541, 1.163e-3
0.542, 1.168e-3
0.543, 1.172e-3
0.544, 1.178e-3
0.545, 1.185e-3
0.546, 1.189e-3
0.547, 1.193e-3
0.548, 1.195e-3
0.549, 1.195e-3
0.550, 1.195e-3
0.551, 1.193e-3
0.552, 1.193e-3
0.553, 1.195e-3
0.554, 1.199e-3
0.555, 1.203e-3
0.556, 1.208e-3
0.557, 1.213e-3
0.558, 1.216e-3
0.559, 1.220e-3
0.560, 1.224e-3
0.561, 1.230e-3
0.562, 1.234e-3
0.563, 1.240e-3
0.564, 1.241e-3
0.565, 1.241e-3
0.566, 1.240e-3
0.567, 1.237e-3
0.568, 1.237e-3
0.569, 1.240e-3
0.570, 1.129e-3
0.569, 8.147e-4
0.568, 5.655e-4
0.567, 3.645e-4
0.566, 2.007e-4
0.565, 6.285e-5
0.564, -5.343e-5
0.563, -1.560e-4
0.562, -2.447e-4
0.561, -3.231e-4
0.560, -3.936e-4
0.559, -4.559e-4
0.558, -5.102e-4
0.557, -5.609e-4
0.556, -6.053e-4
0.555, -6.448e-4
0.554, -6.799e-4
0.553, -7.094e-4
0.552, -7.364e-4
0.551, -7.603e-4
0.550, -7.801e-4
0.549, -7.990e-4
0.548, -8.161e-4
0.547, -8.328e-4
0.546, -8.509e-4
0.545, -8.675e-4
0.544, -8.848e-4
0.543, -8.997e-4
0.542, -9.132e-4
0.541, -9.273e-4
0.540, -9.408e-4
0.539, -9.528e-4
0.538, -9.649e-4
0.537, -9.743e-4
0.536, -9.827e-4
0.535, -9.885e-4
0.534, -9.937e-4
0.533, -9.977e-4
0.532, -1.003e-3
0.531, -1.008e-3
0.530, -1.016e-3
0.529, -1.023e-3
0.528, -1.032e-3
0.527, -1.039e-3
0.526, -1.044e-3
0.525, -1.053e-3
0.524, -1.061e-3
0.523, -1.067e-3
0.522, -1.074e-3
0.521, -1.077e-3
0.520, -1.080e-3
0.519, -1.081e-3
0.518, -1.082e-3
0.517, -1.084e-3
0.516, -1.087e-3
0.515, -1.089e-3
0.514, -1.094e-3
0.513, -1.098e-3
0.512, -1.105e-3
0.511, -1.110e-3
0.510, -1.115e-3
0.509, -1.121e-3
0.508, -1.125e-3
0.507, -1.129e-3
0.506, -1.133e-3
0.505, -1.134e-3
0.504, -1.135e-3
0.503, -1.135e-3
0.502, -1.134e-3
0.501, -1.136e-3
0.500, -1.138e-3
0.499, -1.140e-3
0.498, -1.143e-3
0.497, -1.146e-3
0.496, -1.149e-3
0.495, -1.153e-3
0.494, -1.156e-3
0.493, -1.161e-3
0.492, -1.167e-3
0.491, -1.169e-3
0.490, -1.172e-3
0.489, -1.174e-3
0.488, -1.174e-3
0.487, -1.173e-3
0.486, -1.170e-3
0.485, -1.170e-3
0.484, -1.171e-3
0.483, -1.172e-3
0.482, -1.175e-3
0.481, -1.177e-3
0.480, -1.180e-3
0.479, -1.184e-3
0.478, -1.186e-3
0.477, -1.191e-3
0.476, -1.196e-3
0.475, -1.199e-3
0.474, -1.203e-3
0.473, -1.204e-3
0.472, -1.204e-3
0.471, -1.202e-3
0.470, -1.088e-3
0.471, -7.742e-4
0.472, -5.249e-4
0.473, -3.262e-4
0.474, -1.635e-4
0.475, -2.623e-5
0.476, 8.921e-5
0.477, 1.871e-4
0.478, 2.718e-4
0.479, 3.448e-4
0.480, 4.099e-4
0.481, 4.679e-4
0.482, 5.198e-4
0.483, 5.676e-4
0.484, 6.113e-4
0.485, 6.506e-4
0.486, 6.857e-4
0.487, 7.186e-4
0.488, 7.487e-4
0.489, 7.765e-4
0.490, 7.992e-4
0.491, 8.203e-4
0.492, 8.373e-4
0.493, 8.523e-4
0.494, 8.662e-4
0.495, 8.786e-4
0.496, 8.915e-4
0.497, 9.044e-4
0.498, 9.162e-4
0.499, 9.292e-4
0.500, 9.412e-4
0.501, 9.526e-4
0.502, 9.638e-4
0.503, 9.759e-4
0.504, 9.865e-4
0.505, 9.962e-4
0.506, 1.005e-3
0.507, 1.012e-3
0.508, 1.019e-3
0.509, 1.023e-3
0.510, 1.026e-3
0.511, 1.029e-3
0.512, 1.033e-3
0.513, 1.039e-3
0.514, 1.045e-3
0.515, 1.051e-3
0.516, 1.058e-3
0.517, 1.065e-3
0.518, 1.073e-3
0.519, 1.081e-3
0.520, 1.089e-3
0.521, 1.094e-3
0.522, 1.100e-3
0.523, 1.104e-3
0.524, 1.106e-3
0.525, 1.108e-3
0.526, 1.109e-3
0.527, 1.110e-3
0.528, 1.112e-3
0.529, 1.115e-3
0.530, 1.119e-3
0.531, 1.125e-3
0.532, 1.130e-3
0.533, 1.136e-3
0.534, 1.141e-3
0.535, 1.147e-3
0.536, 1.153e-3
0.537, 1.159e-3
0.538, 1.164e-3
0.539, 1.167e-3
0.540, 1.168e-3
0.541, 1.168e-3
0.542, 1.170e-3
0.543, 1.171e-3
0.544, 1.169e-3
0.545, 1.171e-3
0.546, 1.173e-3
0.547, 1.177e-3
0.548, 1.183e-3
0.549, 1.188e-3
0.550, 1.192e-3
0.551, 1.197e-3
0.552, 1.202e-3
0.553, 1.206e-3
0.554, 1.210e-3
0.555, 1.213e-3
0.556, 1.214e-3
0.557, 1.215e-3
0.558, 1.215e-3
0.559, 1.215e-3
0.560, 1.217e-3
0.561, 1.219e-3
0.562, 1.219e-3
0.563, 1.224e-3
0.564, 1.230e-3
0.565, 1.233e-3
0.566, 1.238e-3
0.567, 1.240e-3
0.568, 1.244e-3
0.569, 1.250e-3
0.570, 1.140e-3
0.569, 8.262e-4
0.568, 5.737e-4
0.567, 3.709e-4
0.566, 2.024e-4
0.565, 5.889e-5
0.564, -6.339e-5
0.563, -1.698e-4
0.562, -2.603e-4
0.561, -3.373e-4
0.560, -4.049e-4
0.559, -4.630e-4
0.558, -5.138e-4
0.557, -5.592e-4
0.556, -5.986e-4
0.555, -6.332e-4
0.554, -6.675e-4
0.553, -6.977e-4
0.552, -7.277e-4
0.551, -7.544e-4
0.550, -7.789e-4
0.549, -8.030e-4
0.548, -8.250e-4
0.547, -8.452e-4
0.546, -8.646e-4
0.545, -8.806e-4
0.544, -8.957e-4
0.543, -9.077e-4
0.542, -9.168e-4
0.541, -9.268e-4
0.540, -9.358e-4
0.539, -9.439e-4
0.538, -9.538e-4
0.537, -9.620e-4
0.536, -9.707e-4
0.535, -9.806e-4
0.534, -9.894e-4
0.533, -1.001e-3
0.532, -1.010e-3
0.531, -1.019e-3
0.530, -1.029e-3
0.529, -1.036e-3
0.528, -1.042e-3
0.527, -1.047e-3
0.526, -1.049e-3
0.525, -1.053e-3
0.524, -1.055e-3
0.523, -1.056e-3
0.522, -1.060e-3
0.521, -1.065e-3
0.520, -1.070e-3
0.519, -1.075e-3
0.518, -1.080e-3
0.517, -1.086e-3
0.516, -1.092e-3
0.515, -1.099e-3
0.514, -1.108e-3
0.513, -1.113e-3
0.512, -1.117e-3
0.511, -1.119e-3
0.510, -1.119e-3
0.509, -1.121e-3
0.508, -1.121e-3
0.507, -1.119e-3
0.506, -1.121e-3
0.505, -1.121e-3
0.504, -1.124e-3
0.503, -1.128e-3
0.502, -1.130e-3
0.501, -1.135e-3
0.500, -1.141e-3
0.499, -1.147e-3
0.498, -1.152e-3
0.497, -1.156e-3
0.496, -1.161e-3
0.495, -1.163e-3
0.494, -1.161e-3
0.493, -1.160e-3
0.492, -1.161e-3
0.491, -1.158e-3
0.490, -1.158e-3
0.489, -1.160e-3
0.488, -1.164e-3
0.487, -1.167e-3
0.486, -1.169e-3
0.485, -1.173e-3
0.484, -1.177e-3
0.483, -1.179e-3
0.482, -1.184e-3
0.481, -1.188e-3
0.480, -1.192e-3
0.479, -1.194e-3
0.478, -1.194e-3
0.477, -1.194e-3
0.476, -1.191e-3
0.475, -1.189e-3
0.474, -1.188e-3
0.473, -1.190e-3
0.472, -1.191e-3
0.471, -1.194e-3
0.470, -1.086e-3
0.471, -7.761e-4
0.472, -5.318e-4
0.473, -3.358e-4
0.474, -1.744e-4
0.475, -3.881e-5
0.476, 7.713e-5
0.477, 1.777e-4
0.478, 2.664e-4
0.479, 3.450e-4
0.480, 4.144e-4
0.481, 4.756e-4
0.482, 5.303e-4
0.483, 5.791e-4
0.484, 6.223e-4
0.485, 6.587e-4
0.486, 6.924e-4
0.487, 7.209e-4
0.488, 7.457e-4
0.489, 7.688e-4
0.490, 7.883e-4
0.491, 8.082e-4
0.492, 8.264e-4
0.493, 8.443e-4
0.494, 8.625e-4
0.495, 8.792e-4
0.496, 8.952e-4
0.497, 9.108e-4
0.498, 9.237e-4
0.499, 9.377e-4
0.500, 9.497e-4
0.501, 9.605e-4
0.502, 9.705e-4
0.503, 9.778e-4
0.504, 9.831e-4
0.505, 9.886e-4
0.506, 9.933e-4
0.507, 9.998e-4
0.508, 1.007e-3
0.509, 1.014e-3
0.510, 1.023e-3
0.511, 1.031e-3
0.512, 1.038e-3
0.513, 1.045e-3
0.514, 1.053e-3
0.515, 1.061e-3
0.516, 1.068e-3
0.517, 1.073e-3
0.518, 1.079e-3
0.519, 1.082e-3
0.520, 1.084e-3
0.521, 1.086e-3
0.522, 1.089e-3
0.523, 1.092e-3
0.524, 1.095e-3
0.525, 1.099e-3
0.526, 1.105e-3
0.527, 1.110e-3
0.528, 1.115e-3
0.529, 1.121e-3
0.530, 1.127e-3
0.531, 1.134e-3
0.532, 1.140e-3
0.533, 1.144e-3
0.534, 1.148e-3
0.535, 1.150e-3
0.536, 1.150e-3
0.537, 1.152e-3
0.538, 1.151e-3
0.539, 1.152e-3
0.540, 1.155e-3
0.541, 1.157e-3
0.542, 1.161e-3
0.543, 1.166e-3
0.544, 1.172e-3
0.545, 1.178e-3
0.546, 1.182e-3
0.547, 1.187e-3
0.548, 1.192e-3
0.549, 1.196e-3
0.550, 1.200e-3
0.551, 1.202e-3
0.552, 1.203e-3
0.553, 1.203e-3
0.554, 1.202e-3
0.555, 1.201e-3
0.556, 1.202e-3
0.557, 1.203e-3
0.558, 1.209e-3
0.559, 1.213e-3
0.560, 1.216e-3
0.561, 1.222e-3
0.562, 1.229e-3
0.563, 1.235e-3
0.564, 1.238e-3
0.565, 1.242e-3
0.566, 1.245e-3
0.567, 1.244e-3
0.568, 1.241e-3
0.569, 1.242e-3
0.570, 1.130e-3
0.569, 8.142e-4
0.568, 5.607e-4
0.567, 3.580e-4
0.566, 1.926e-4
0.565, 5.338e-5
0.564, -6.407e-5
0.563, -1.657e-4
0.562, -2.522e-4
0.561, -3.267e-4
0.560, -3.934e-4
0.559, -4.534e-4
0.558, -5.058e-4
0.557, -5.550e-4
0.556, -5.996e-4
0.555, -6.389e-4
0.554, -6.767e-4
0.553, -7.100e-4
0.552, -7.400e-4
0.551, -7.677e-4
0.550, -7.896e-4
0.549, -8.092e-4
0.548, -8.247e-4
0.547, -8.390e-4
0.546, -8.539e-4
0.545, -8.677e-4
0.544, -8.817e-4
0.543, -8.961e-4
0.542, -9.092e-4
0.541, -9.230e-4
0.540, -9.358e-4
0.539, -9.470e-4
0.538, -9.602e-4
0.537, -9.723e-4
0.536, -9.833e-4
0.535, -9.941e-4
0.534, -1.001e-3
0.533, -1.007e-3
0.532, -1.011e-3
0.531, -1.014e-3
0.530, -1.017e-3
0.529, -1.021e-3
0.528, -1.026e-3
0.527, -1.033e-3
0.526, -1.039e-3
0.525, -1.046e-3
0.524, -1.053e-3
0.523, -1.059e-3
0.522, -1.068e-3
0.521, -1.076e-3
0.520, -1.084e-3
0.519, -1.089e-3
0.518, -1.091e-3
0.517, -1.094e-3
0.516, -1.095e-3
0.515, -1.095e-3
0.514, -1.096e-3
0.513, -1.097e-3
0.512, -1.099e-3
0.511, -1.105e-3
0.510, -1.108e-3
0.509, -1.113e-3
0.508, -1.118e-3
0.507, -1.122e-3
0.506, -1.129e-3
0.505, -1.133e-3
0.504, -1.138e-3
0.503, -1.143e-3
0.502, -1.143e-3
0.501, -1.145e-3
0.500, -1.144e-3
0.499, -1.143e-3
0.498, -1.144e-3
0.497, -1.143e-3
0.496, -1.145e-3
0.495, -1.148e-3
0.494, -1.151e-3
0.493, -1.155e-3
0.492, -1.159e-3
0.491, -1.162e-3
0.490, -1.169e-3
0.489, -1.172e-3
0.488, -1.175e-3
0.487, -1.178e-3
0.486, -1.178e-3
0.485, -1.178e-3
0.484, -1.178e-3
0.483, -1.177e-3
0.482, -1.177e-3
0.481, -1.177e-3
0.480, -1.179e-3
0.479, -1.182e-3
0.478, -1.183e-3
0.477, -1.186e-3
0.476, -1.190e-3
0.475, -1.193e-3
0.474, -1.198e-3
0.473, -1.201e-3
0.472, -1.205e-3
0.471, -1.208e-3
